# dimensionless total [l(l+1)/2pi] C_l's
# for l=2 to 3000, i.e. number of multipoles equal to 2999
#
# -> if you prefer output in CAMB/HealPix/LensPix units/order, set 'format' to 'camb' in input file
# -> if you don't want to see such a header, set 'headers' to 'no' in input file
# -> for CMB lensing (phi), these are C_l^phi-phi for the lensing potential.
#    Remember the conversion factors:
#    C_l^dd (deflection) = l(l+1) C_l^phi-phi
#    C_l^gg (shear/convergence) = 1/4 (l(l+1))^2 C_l^phi-phi
#
# 1:l     2:TT                     3:EE                     4:TE                     5:BB                     6:phiphi                 7:TPhi                   8:Ephi               
    2       1.513632918513e-10       4.793921493795e-15       3.799555942381e-13       0.000000000000e+00       8.308904379941e-09       5.059096419903e-10      -2.012651340597e-12 
    3       1.417602762286e-10       6.054152185885e-15       4.281333626289e-13       0.000000000000e+00       5.129787221825e-09       3.573051931561e-10      -1.512212515500e-12 
    4       1.331007519037e-10       5.148204128112e-15       3.998154405997e-13       0.000000000000e+00       3.573400761521e-09       2.695789348144e-10      -9.767884003899e-13 
    5       1.266633040877e-10       3.372193525482e-15       3.391742229784e-13       0.000000000000e+00       2.668735107187e-09       2.123125748829e-10      -5.310264500427e-13 
    6       1.222125043038e-10       1.854975073831e-15       2.715864014743e-13       0.000000000000e+00       2.084680568988e-09       1.723345048635e-10      -2.072578124577e-13 
    7       1.192614838081e-10       9.970897066518e-16       2.117218413722e-13       0.000000000000e+00       1.680633171156e-09       1.430916269198e-10      -5.088509029457e-15 
    8       1.174514607369e-10       6.484079200623e-16       1.659066551231e-13       0.000000000000e+00       1.387197588352e-09       1.209769940013e-10       9.390930263659e-14 
    9       1.164838756102e-10       5.208329618794e-16       1.354177639038e-13       0.000000000000e+00       1.166706605163e-09       1.038398640927e-10       1.170784883100e-13 
   10       1.161112827400e-10       4.388688937845e-16       1.186536899658e-13       0.000000000000e+00       9.966330594495e-10       9.028017779995e-11       9.395862299088e-14 
   11       1.162373472708e-10       3.648779380020e-16       1.125827382593e-13       0.000000000000e+00       8.432444682215e-10       7.968572266093e-11       5.145219191321e-14 
   12       1.167162073622e-10       3.171910390267e-16       1.137789711669e-13       0.000000000000e+00       7.367159460786e-10       7.043617991323e-11       8.505980938275e-15 
   13       1.174781296084e-10       3.043649693237e-16       1.192686395493e-13       0.000000000000e+00       6.492657216141e-10       6.289361630796e-11      -2.257326980919e-14 
   14       1.184502068736e-10       3.151740515597e-16       1.268681842855e-13       0.000000000000e+00       5.765067698686e-10       5.630728325854e-11      -3.807909605481e-14 
   15       1.196300738662e-10       3.376011088222e-16       1.351592327230e-13       0.000000000000e+00       5.152630125573e-10       5.077074223346e-11      -3.911711409427e-14 
   16       1.209581220103e-10       3.710504551039e-16       1.435378252124e-13       0.000000000000e+00       4.631924051275e-10       4.602106204451e-11      -3.058989550891e-14 
   17       1.224240665086e-10       4.221509639487e-16       1.519056433417e-13       0.000000000000e+00       4.185256691069e-10       4.189307133368e-11      -1.835701756878e-14 
   18       1.239798788402e-10       4.958392961066e-16       1.605032386101e-13       0.000000000000e+00       3.797594849058e-10       3.827070761151e-11      -7.624500954218e-15 
   19       1.256370810278e-10       5.918689773334e-16       1.695713619918e-13       0.000000000000e+00       3.462754720821e-10       3.511430815337e-11      -8.583999122018e-16 
   20       1.273744603327e-10       7.076935671510e-16       1.792901363883e-13       0.000000000000e+00       3.167860102268e-10       3.233007641896e-11       6.145645603639e-16 
   21       1.291982573409e-10       8.427089164766e-16       1.896131048062e-13       0.000000000000e+00       2.908279067506e-10       2.986658240699e-11      -2.207634366155e-15 
   22       1.310900529068e-10       9.965665411413e-16       2.003184857337e-13       0.000000000000e+00       2.677793014314e-10       2.764727039660e-11      -7.115524625748e-15 
   23       1.330478713470e-10       1.169033555033e-15       2.109668677028e-13       0.000000000000e+00       2.473233388436e-10       2.564949955947e-11      -1.224083903896e-14 
   24       1.350546468478e-10       1.359832762090e-15       2.210152315906e-13       0.000000000000e+00       2.289874968368e-10       2.384565017397e-11      -1.575946120203e-14 
   25       1.371212487642e-10       1.569509011746e-15       2.301927434924e-13       0.000000000000e+00       2.125560521497e-10       2.222820915713e-11      -1.704041786868e-14 
   26       1.392482710507e-10       1.799072526598e-15       2.383238456478e-13       0.000000000000e+00       1.977314565420e-10       2.077750410766e-11      -1.603159120124e-14 
   27       1.414215379444e-10       2.050580661220e-15       2.453410056776e-13       0.000000000000e+00       1.843357594908e-10       1.946519693334e-11      -1.354539180361e-14 
   28       1.436142306019e-10       2.326405639100e-15       2.512388420493e-13       0.000000000000e+00       1.721379310504e-10       1.825329856394e-11      -1.073995391838e-14 
   29       1.458365166132e-10       2.627993806715e-15       2.560828152408e-13       0.000000000000e+00       1.610756083253e-10       1.714064368866e-11      -8.251052800114e-15 
   30       1.480994021396e-10       2.956488472390e-15       2.599962008623e-13       0.000000000000e+00       1.510299544421e-10       1.612902039109e-11      -6.645345170801e-15 
   31       1.504028779418e-10       3.312962774891e-15       2.631040890220e-13       0.000000000000e+00       1.417960079388e-10       1.521064397147e-11      -6.413591763149e-15 
   32       1.527493350000e-10       3.698336000210e-15       2.653508859898e-13       0.000000000000e+00       1.333260059616e-10       1.437510160266e-11      -7.275219936020e-15 
   33       1.551323274182e-10       4.113411397880e-15       2.666132358970e-13       0.000000000000e+00       1.255599705410e-10       1.360304353644e-11      -8.596687201723e-15 
   34       1.575385850549e-10       4.558945512234e-15       2.667499762903e-13       0.000000000000e+00       1.183891390735e-10       1.287148986295e-11      -9.698378532292e-15 
   35       1.599725560007e-10       5.035845667716e-15       2.656188167303e-13       0.000000000000e+00       1.117767494058e-10       1.218234837273e-11      -1.034716437744e-14 
   36       1.624386853988e-10       5.545033418937e-15       2.630627835092e-13       0.000000000000e+00       1.056697009565e-10       1.154304611767e-11      -1.042954757580e-14 
   37       1.649364264741e-10       6.087375646508e-15       2.589382653268e-13       0.000000000000e+00       9.998845616346e-11       1.095786064410e-11      -9.879797404234e-15 
   38       1.674682417316e-10       6.663638089284e-15       2.532313881976e-13       0.000000000000e+00       9.471828939536e-11       1.042490536283e-11      -8.879723554407e-15 
   39       1.700330153661e-10       7.274509515504e-15       2.459807834269e-13       0.000000000000e+00       8.984243553289e-11       9.937591977966e-12      -7.729747701974e-15 
   40       1.726230732960e-10       7.920608425834e-15       2.372482321416e-13       0.000000000000e+00       8.531433477037e-11       9.484985795503e-12      -6.801259042231e-15 
   41       1.752285172452e-10       8.602525967312e-15       2.270957055824e-13       0.000000000000e+00       8.107383998889e-11       9.055104191228e-12      -6.434239715484e-15 
   42       1.778534977624e-10       9.320982241475e-15       2.155041264045e-13       0.000000000000e+00       7.710843071548e-11       8.646951132084e-12      -6.579172166552e-15 
   43       1.805041366143e-10       1.007671334265e-14       2.024305213419e-13       0.000000000000e+00       7.340755284201e-11       8.261806754238e-12      -7.046183718990e-15 
   44       1.831836891186e-10       1.087042716005e-14       1.878298326777e-13       0.000000000000e+00       6.994425096783e-11       7.899814606218e-12      -7.599120135600e-15 
   45       1.858932412730e-10       1.170276525521e-14       1.716554473982e-13       0.000000000000e+00       6.668478648503e-11       7.560258124959e-12      -8.011573577720e-15 
   46       1.886347856100e-10       1.257417781440e-14       1.538616247680e-13       0.000000000000e+00       6.362399682814e-11       7.242727964654e-12      -8.261591029557e-15 
   47       1.914085336692e-10       1.348500921048e-14       1.344013242472e-13       0.000000000000e+00       6.075828677531e-11       6.946130889379e-12      -8.390375541615e-15 
   48       1.942117388328e-10       1.443552837196e-14       1.132252388040e-13       0.000000000000e+00       5.807496401627e-11       6.668264309752e-12      -8.449042174654e-15 
   49       1.970384421615e-10       1.542592542327e-14       9.028156485743e-14       0.000000000000e+00       5.555156288345e-11       6.405736490939e-12      -8.499185149535e-15 
   50       1.998822326910e-10       1.645633957752e-14       6.552212133321e-14       0.000000000000e+00       5.316260301054e-11       6.154952092763e-12      -8.599438113755e-15 
   51       2.027460012820e-10       1.752695953538e-14       3.892319865992e-14       0.000000000000e+00       5.090359702263e-11       5.915569280290e-12      -8.759538438728e-15 
   52       2.056343950033e-10       1.863794453081e-14       1.046997132929e-14       0.000000000000e+00       4.877239048990e-11       5.687843081479e-12      -8.974774548532e-15 
   53       2.085509244267e-10       1.978939361606e-14      -1.984928950167e-14       0.000000000000e+00       4.676197791050e-11       5.471613116265e-12      -9.238813212305e-15 
   54       2.114978513187e-10       2.098134377265e-14      -5.204314728602e-14       0.000000000000e+00       4.486017632058e-11       5.266273937840e-12      -9.543607546643e-15 
   55       2.144764927583e-10       2.221378254223e-14      -8.611753391701e-14       0.000000000000e+00       4.305333677561e-11       5.071035423005e-12      -9.878955382145e-15 
   56       2.174884792458e-10       2.348669392123e-14      -1.220776639565e-13       0.000000000000e+00       4.133930622760e-11       4.885847638585e-12      -1.023125664604e-14 
   57       2.205346124189e-10       2.480002055862e-14      -1.599264755654e-13       0.000000000000e+00       3.971711395886e-11       4.710653782110e-12      -1.058428614569e-14 
   58       2.236143820196e-10       2.615364894030e-14      -1.996640253482e-13       0.000000000000e+00       3.818305043772e-11       4.545102304086e-12      -1.091941283769e-14 
   59       2.267258698102e-10       2.754740806582e-14      -2.412874431052e-13       0.000000000000e+00       3.673049824828e-11       4.388528549892e-12      -1.121549420811e-14 
   60       2.298656534904e-10       2.898106812499e-14      -2.847908865832e-13       0.000000000000e+00       3.534976302010e-11       4.239936401671e-12      -1.144877065267e-14 
   61       2.330302649746e-10       3.045428841054e-14      -3.301663477783e-13       0.000000000000e+00       3.403076175852e-11       4.098270702001e-12      -1.159844505923e-14 
   62       2.362211650916e-10       3.196645038757e-14      -3.774063856973e-13       0.000000000000e+00       3.277217545837e-11       3.963347511740e-12      -1.166512399524e-14 
   63       2.394407200899e-10       3.351678463592e-14      -4.265019294914e-13       0.000000000000e+00       3.157406022393e-11       3.835101032029e-12      -1.165634725654e-14 
   64       2.426906999719e-10       3.510441543191e-14      -4.774414631637e-13       0.000000000000e+00       3.043509429858e-11       3.713302297040e-12      -1.158134121328e-14 
   65       2.459722317288e-10       3.672835781426e-14      -5.302110073401e-13       0.000000000000e+00       2.935249965762e-11       3.597550042159e-12      -1.145109357735e-14 
   66       2.492857525764e-10       3.838751465004e-14      -5.847941010398e-13       0.000000000000e+00       2.832196360115e-11       3.487261572161e-12      -1.127842816969e-14 
   67       2.526309631901e-10       4.008067370065e-14      -6.411717834456e-13       0.000000000000e+00       2.733756034694e-11       3.381663629396e-12      -1.107807968775e-14 
   68       2.560073698860e-10       4.180661619656e-14      -6.993225718958e-13       0.000000000000e+00       2.639333121950e-11       3.279995395982e-12      -1.086414868090e-14 
   69       2.594161432677e-10       4.356447466698e-14      -7.592224314275e-13       0.000000000000e+00       2.548857228971e-11       3.182185677921e-12      -1.064170052052e-14 
   70       2.628585539104e-10       4.535344267820e-14      -8.208447662856e-13       0.000000000000e+00       2.462348221897e-11       3.088297161974e-12      -1.041359065416e-14 
   71       2.663353856045e-10       4.717266965936e-14      -8.841604051581e-13       0.000000000000e+00       2.379756311870e-11       2.998322782444e-12      -1.018294140724e-14 
   72       2.698469036530e-10       4.902126082030e-14      -9.491375828493e-13       0.000000000000e+00       2.300958456249e-11       2.912182014780e-12      -9.953149748012e-15 
   73       2.733928231702e-10       5.089827706941e-14      -1.015741921955e-12       0.000000000000e+00       2.225754759839e-11       2.829717169181e-12      -9.727895052667e-15 
   74       2.769722773789e-10       5.280273493142e-14      -1.083936414534e-12       0.000000000000e+00       2.153864876103e-11       2.750689684198e-12      -9.511146870322e-15 
   75       2.805837859086e-10       5.473360646531e-14      -1.153681403786e-12       0.000000000000e+00       2.084924408386e-11       2.674776420337e-12      -9.307172688069e-15 
   76       2.842259102966e-10       5.668977376761e-14      -1.224936111929e-12       0.000000000000e+00       2.018575217202e-11       2.601653793243e-12      -9.119774821682e-15 
   77       2.878994285691e-10       5.866988308583e-14      -1.297663586018e-12       0.000000000000e+00       1.954763309360e-11       2.531276078600e-12      -8.949823268364e-15 
   78       2.916055014517e-10       6.067246382907e-14      -1.371826624918e-12       0.000000000000e+00       1.893488984476e-11       2.463641359484e-12      -8.797284975078e-15 
   79       2.953450030195e-10       6.269597062538e-14      -1.447386326266e-12       0.000000000000e+00       1.834716101893e-11       2.398706314680e-12      -8.661946888533e-15 
   80       2.991185030868e-10       6.473878230839e-14      -1.524302099858e-12       0.000000000000e+00       1.778370407522e-11       2.336384313502e-12      -8.543407912817e-15 
   81       3.029262495969e-10       6.679920090382e-14      -1.602531681024e-12       0.000000000000e+00       1.724337860677e-11       2.276543510623e-12      -8.441070867029e-15 
   82       3.067681510113e-10       6.887545061614e-14      -1.682031144009e-12       0.000000000000e+00       1.672462960920e-11       2.219004940897e-12      -8.354134442904e-15 
   83       3.106437586996e-10       7.096567681507e-14      -1.762754915353e-12       0.000000000000e+00       1.622547074901e-11       2.163540614184e-12      -8.281585162450e-15 
   84       3.145525621289e-10       7.306800608734e-14      -1.844655171906e-12       0.000000000000e+00       1.574396614412e-11       2.109928582668e-12      -8.222157959176e-15 
   85       3.184949692339e-10       7.518074004996e-14      -1.927679890876e-12       0.000000000000e+00       1.527980412351e-11       2.058132805066e-12      -8.174228030088e-15 
   86       3.224714570393e-10       7.730219195842e-14      -2.011774499550e-12       0.000000000000e+00       1.483295490008e-11       2.008149745690e-12      -8.135886226403e-15 
   87       3.264822611390e-10       7.943062851099e-14      -2.096882464912e-12       0.000000000000e+00       1.440318702499e-11       1.959953119393e-12      -8.104960392491e-15 
   88       3.305273633425e-10       8.156426986158e-14      -2.182945296679e-12       0.000000000000e+00       1.399005903443e-11       1.913492943920e-12      -8.079006796172e-15 
   89       3.346064793219e-10       8.370128963263e-14      -2.269902550342e-12       0.000000000000e+00       1.359291109640e-11       1.868694592251e-12      -8.055301559015e-15 
   90       3.387190462585e-10       8.583981492804e-14      -2.357691830203e-12       0.000000000000e+00       1.321085665743e-11       1.825457844944e-12      -8.030832086632e-15 
   91       3.428642104897e-10       8.797792634598e-14      -2.446248792410e-12       0.000000000000e+00       1.284277408933e-11       1.783655942483e-12      -8.002288498971e-15 
   92       3.470408151553e-10       9.011365799184e-14      -2.535507147998e-12       0.000000000000e+00       1.248729833601e-11       1.743134637627e-12      -7.966055060616e-15 
   93       3.512477480365e-10       9.224503043322e-14      -2.625399874472e-12       0.000000000000e+00       1.214314416301e-11       1.703750572225e-12      -7.919064980297e-15 
   94       3.554850717469e-10       9.437015520687e-14      -2.715863052411e-12       0.000000000000e+00       1.181014966270e-11       1.665495068508e-12      -7.861530485454e-15 
   95       3.597530414730e-10       9.648714612656e-14      -2.806832614189e-12       0.000000000000e+00       1.148837497832e-11       1.628387290532e-12      -7.794609417119e-15 
   96       3.640517526181e-10       9.859408820026e-14      -2.898243206208e-12       0.000000000000e+00       1.117778093465e-11       1.592436176232e-12      -7.719581683916e-15 
   97       3.683811333940e-10       1.006890380952e-13      -2.990028208529e-12       0.000000000000e+00       1.087822523663e-11       1.557640029568e-12      -7.637852543689e-15 
   98       3.727409374113e-10       1.027700246030e-13      -3.082119754493e-12       0.000000000000e+00       1.058945866796e-11       1.523986112670e-12      -7.550955885118e-15 
   99       3.771307362707e-10       1.048350491048e-13      -3.174448750353e-12       0.000000000000e+00       1.031112128974e-11       1.491450237988e-12      -7.460557509352e-15 
  100       3.815499121541e-10       1.068820860359e-13      -3.266944894899e-12       0.000000000000e+00       1.004273863906e-11       1.459996360433e-12      -7.368458411627e-15 
  101       3.859976504152e-10       1.089090833515e-13      -3.359536699087e-12       0.000000000000e+00       9.783717927640e-12       1.429576169527e-12      -7.276598062889e-15 
  102       3.904729321712e-10       1.109139629915e-13      -3.452151505665e-12       0.000000000000e+00       9.533344240421e-12       1.400128681546e-12      -7.187057691421e-15 
  103       3.949745268932e-10       1.128946213451e-13      -3.544715508800e-12       0.000000000000e+00       9.290776734202e-12       1.371579831670e-12      -7.102063564464e-15 
  104       3.995012467966e-10       1.148489807425e-13      -3.637154326735e-12       0.000000000000e+00       9.055238878748e-12       1.343859377407e-12      -7.023502705870e-15 
  105       4.040527651067e-10       1.167751508463e-13      -3.729394765587e-12       0.000000000000e+00       8.826626635599e-12       1.316955087865e-12      -6.951388475963e-15 
  106       4.086288950309e-10       1.186712900301e-13      -3.821363331511e-12       0.000000000000e+00       8.604975730952e-12       1.290865148381e-12      -6.885192866831e-15 
  107       4.132293333529e-10       1.205355573126e-13      -3.912985724343e-12       0.000000000000e+00       8.390273300660e-12       1.265581287932e-12      -6.824313505502e-15 
