# dimensionless total lensed [l(l+1)/2pi] C_l's
# for l=2 to 2500, i.e. number of multipoles equal to 2499
#
# -> if you prefer output in CAMB/HealPix/LensPix units/order, set 'format' to 'camb' in input file
# -> if you don't want to see such a header, set 'headers' to 'no' in input file
# -> for CMB lensing (phi), these are C_l^phi-phi for the lensing potential.
#    Remember the conversion factors:
#    C_l^dd (deflection) = l(l+1) C_l^phi-phi
#    C_l^gg (shear/convergence) = 1/4 (l(l+1))^2 C_l^phi-phi
#
# 1:l     2:TT                     3:EE                     4:TE                     5:BB                     6:phiphi                 7:TPhi                   8:Ephi               
    2       1.513654121461e-10       4.794161774681e-15       3.799557268043e-13       2.253210353952e-19       8.309173825760e-09       5.059238049287e-10      -2.012670012492e-12 
    3       1.417619175872e-10       6.054629455215e-15       4.281305290317e-13       4.507420069574e-19       5.129975269192e-09       3.573162013188e-10      -1.512229780786e-12 
    4       1.331030473623e-10       5.148999043382e-15       3.998152520210e-13       7.514566602218e-19       3.573542726330e-09       2.695875880128e-10      -9.768013102282e-13 
    5       1.266667724464e-10       3.373360149254e-15       3.391769294376e-13       1.127592465880e-18       2.668847503027e-09       2.123196661783e-10      -5.310333638127e-13 
    6       1.222172351554e-10       1.856581799588e-15       2.715898419333e-13       1.579303935843e-18       2.084772772808e-09       1.723405625685e-10      -2.072597750280e-13 
    7       1.192673050242e-10       9.992170764417e-16       2.117252116840e-13       2.106769628534e-18       1.680710473833e-09       1.430969311734e-10      -5.087569110302e-15 
    8       1.174584999580e-10       6.511358442807e-16       1.659096990478e-13       2.710188767607e-18       1.387263623396e-09       1.209817187249e-10       9.391129756487e-14 
    9       1.164923249058e-10       5.242389628859e-16       1.354202533380e-13       3.389777577002e-18       1.166764271494e-09       1.038441741185e-10       1.170803138143e-13 
   10       1.161211713793e-10       4.430298230886e-16       1.186558369926e-13       4.145765442317e-18       9.966841402030e-10       9.028417886182e-11       9.395969089467e-14 
   11       1.162488640907e-10       3.698711606927e-16       1.125845789485e-13       4.978391011620e-18       8.432903282432e-10       7.968947146244e-11       5.145242122389e-14 
   12       1.167294875926e-10       3.230949248482e-16       1.137804290529e-13       5.887898347993e-18       7.367571634692e-10       7.043956540939e-11       8.505540386612e-15 
   13       1.174933008695e-10       3.112582950303e-16       1.192695888411e-13       6.874533241277e-18       6.493031021898e-10       6.289667983502e-11      -2.257406209444e-14 
   14       1.184674574521e-10       3.231356639933e-16       1.268684532483e-13       7.938539777995e-18       5.765407199669e-10       5.631016878007e-11      -3.807997917220e-14 
   15       1.196495348951e-10       3.467096517458e-16       1.351586089919e-13       9.080157256487e-18       5.152940419740e-10       5.077343908597e-11      -3.911788936189e-14 
   16       1.209798229740e-10       3.813848964547e-16       1.435358682263e-13       1.029961751952e-17       4.632209081456e-10       4.602348071442e-11      -3.059050527970e-14 
   17       1.224481702739e-10       4.337912693168e-16       1.519020424104e-13       1.159714275951e-17       4.185519000079e-10       4.189523865297e-11      -1.835748885944e-14 
   18       1.240064345008e-10       5.088650152537e-16       1.604975600380e-13       1.297294362416e-17       3.797836837275e-10       3.827274637270e-11      -7.624939711088e-15 
   19       1.256661611682e-10       6.063601832827e-16       1.695632007381e-13       1.442721909886e-17       3.462978732995e-10       3.511625195379e-11      -8.588763995665e-16 
   20       1.274062298791e-10       7.237312092789e-16       1.792791915399e-13       1.596015355916e-17       3.168067916068e-10       3.233182311517e-11       6.140601516835e-16 
   21       1.292328332975e-10       8.603737270191e-16       1.895989706618e-13       1.757191984094e-17       2.908472221977e-10       2.986811268569e-11      -2.208156482933e-15 
   22       1.311274636931e-10       1.015938636913e-15       2.003005831316e-13       1.926267598983e-17       2.677972710835e-10       2.764870487324e-11      -7.116077761151e-15 
   23       1.330881666320e-10       1.190193080299e-15       2.109445756513e-13       2.103256985963e-17       2.473400788749e-10       2.565089881403e-11      -1.224142783695e-14 
   24       1.350979328898e-10       1.382860114201e-15       2.209879415831e-13       2.288173580808e-17       2.290031154091e-10       2.384695708373e-11      -1.576006681347e-14 
   25       1.371676394085e-10       1.594484885791e-15       2.301598794299e-13       2.481030107143e-17       2.125706516202e-10       2.222938794126e-11      -1.704099214924e-14 
   26       1.392978692802e-10       1.826077803174e-15       2.382848613660e-13       2.681838177845e-17       1.977451247649e-10       2.077857923189e-11      -1.603206570912e-14 
   27       1.414744282552e-10       2.079695714939e-15       2.452952930755e-13       2.890608899732e-17       1.843485756844e-10       1.946618583196e-11      -1.354574555781e-14 
   28       1.436704786197e-10       2.357710133900e-15       2.511857162524e-13       3.107352602266e-17       1.721499623827e-10       1.825419488454e-11      -1.074023287331e-14 
   29       1.458961918944e-10       2.661567257944e-15       2.560216183644e-13       3.332079785804e-17       1.610869203964e-10       1.714145581265e-11      -8.251316766119e-15 
   30       1.481625877701e-10       2.992410435488e-15       2.599263502627e-13       3.564800353836e-17       1.510406081633e-10       1.612978772055e-11      -6.645649575335e-15 
   31       1.504696709688e-10       3.351312717127e-15       2.630250678100e-13       3.805523608977e-17       1.418060540086e-10       1.521142948606e-11      -6.413980159789e-15 
   32       1.528198335561e-10       3.739192597621e-15       2.652621094050e-13       4.054259394496e-17       1.333354918901e-10       1.437593285872e-11      -7.275703845008e-15 
   33       1.552066261076e-10       4.156852174620e-15       2.665139930880e-13       4.311017379896e-17       1.255689386967e-10       1.360388450248e-11      -8.597232669749e-15 
   34       1.576167723933e-10       4.605046828777e-15       2.666394430349e-13       4.575806913742e-17       1.183976235952e-10       1.287224703406e-11      -9.698911298122e-15 
   35       1.600547074943e-10       5.084683453552e-15       2.654962106621e-13       4.848637509623e-17       1.117847824470e-10       1.218295377570e-11      -1.034763103567e-14 
   36       1.625248590869e-10       5.596683424617e-15       2.629274281991e-13       5.129518560504e-17       1.056773122313e-10       1.154349111540e-11      -1.042994102168e-14 
   37       1.650266640378e-10       6.141913409367e-15       2.587895877033e-13       5.418459119151e-17       9.999567131215e-11       1.095819515829e-11      -9.880156394169e-15 
   38       1.675625856147e-10       6.721138564334e-15       2.530688094608e-13       5.715467511004e-17       9.472513377784e-11       1.042518443168e-11      -8.880091285726e-15 
   39       1.701315151912e-10       7.335046933719e-15       2.458036815809e-13       6.020551618644e-17       8.984893402390e-11       9.937857850133e-12      -7.730158071408e-15 
   40       1.727257881823e-10       7.984256240781e-15       2.370559320985e-13       6.333719000177e-17       8.532050988780e-11       9.485263749134e-12      -6.801733604537e-15 
   41       1.753355141869e-10       8.669356607070e-15       2.268874986604e-13       6.654976513049e-17       8.107971098701e-11       9.055401663223e-12      -6.434786500235e-15 
   42       1.779648362946e-10       9.391066202841e-15       2.152793912638e-13       6.984329010893e-17       7.711401635325e-11       8.647268777787e-12      -6.579791307854e-15 
   43       1.806198629739e-10       1.015011872707e-14       2.021887752830e-13       7.321780241581e-17       7.341287139104e-11       8.262140967656e-12      -7.046868132395e-15 
   44       1.833038339733e-10       1.094721937050e-14       1.875707569876e-13       7.667333183153e-17       6.994931910325e-11       7.900156728192e-12      -7.599854246857e-15 
   45       1.860178210252e-10       1.178300700078e-14       1.713788879065e-13       8.020989589526e-17       6.668961878662e-11       7.560595175037e-12      -8.012334568255e-15 
   46       1.887638160117e-10       1.265793018156e-14       1.535675060223e-13       8.382748502357e-17       6.362860754064e-11       7.243048591579e-12      -8.262358692523e-15 
   47       1.915420345785e-10       1.357233196205e-14       1.340896265312e-13       8.752607267791e-17       6.076268983257e-11       6.946427587817e-12      -8.391135983822e-15 
   48       1.943497356586e-10       1.452647995578e-14       1.128959988907e-13       9.130561896767e-17       5.807917237640e-11       6.668534249336e-12      -8.449789233650e-15 
   49       1.971809673871e-10       1.552056298500e-14       8.993487660246e-14       9.516607024176e-17       5.555558781470e-11       6.405982391338e-12      -8.499921890377e-15 
   50       2.000293253460e-10       1.655471894008e-14       6.515814042340e-14       9.910735868250e-17       5.316645388189e-11       6.155181668104e-12      -8.600175783415e-15 
   51       2.028976994129e-10       1.762913505774e-14       3.854216153673e-14       1.031294019047e-16       5.090728288456e-11       5.915789827008e-12      -8.760286794937e-15 
   52       2.057907333819e-10       1.874396906185e-14       1.007220350661e-14       1.072321025418e-16       4.877592026579e-11       5.688059684042e-12      -8.975538610630e-15 
   53       2.087119342042e-10       1.989931848551e-14      -2.026336906032e-14       1.114153478353e-16       4.676536005385e-11       5.471828191463e-12      -9.239592386867e-15 
   54       2.116635596593e-10       2.109521878436e-14      -5.247302174830e-14       1.156790092266e-16       4.486341844909e-11       5.266486755616e-12      -9.544394709407e-15 
   55       2.146469228014e-10       2.233165580478e-14      -8.656257985246e-14       1.200229516533e-16       4.305644554874e-11       5.071242340067e-12      -9.879737513412e-15 
   56       2.176636512002e-10       2.360861113743e-14      -1.225371285191e-13       1.244470650779e-16       4.134228807882e-11       4.886044731460e-12      -1.023202067851e-14 
   57       2.207145437703e-10       2.492602472587e-14      -1.603994641909e-13       1.289512400764e-16       3.971997514490e-11       4.710837635738e-12      -1.058502081820e-14 
   58       2.237990874045e-10       2.628378020037e-14      -2.001494932098e-13       1.335353587903e-16       3.818579682729e-11       4.545270121506e-12      -1.092010908339e-14 
   59       2.269153608831e-10       2.768170355054e-14      -2.417841863598e-13       1.381992948961e-16       3.673313509793e-11       4.388678267150e-12      -1.121614556112e-14 
   60       2.300599387833e-10       2.911956179793e-14      -2.852975334109e-13       1.429429135755e-16       3.535229473735e-11       4.240066807956e-12      -1.144937367332e-14 
   61       2.332293500776e-10       3.059701110425e-14      -3.306813598907e-13       1.477660887541e-16       3.403319190568e-11       4.098381457000e-12      -1.159899923383e-14 
   62       2.364250538975e-10       3.211343048776e-14      -3.779280944740e-13       1.526687594094e-16       3.277450757055e-11       3.963438815883e-12      -1.166562987987e-14 
   63       2.396494152016e-10       3.366804825744e-14      -4.270285449267e-13       1.576508859061e-16       3.157629797380e-11       3.835173574848e-12      -1.165680601379e-14 
   64       2.429042028058e-10       3.525998641014e-14      -4.779710729497e-13       1.627124343487e-16       3.043724141902e-11       3.713357308421e-12      -1.158175465939e-14 
   65       2.461905426213e-10       3.688825769882e-14      -5.307415760795e-13       1.678533770999e-16       2.935455985973e-11       3.597589345382e-12      -1.145146423061e-14 
   66       2.495088708935e-10       3.855176270081e-14      -5.853234695902e-13       1.730736932982e-16       2.832394048747e-11       3.487287638749e-12      -1.127875930017e-14 
   67       2.528588874404e-10       4.024928688606e-14      -6.416976683936e-13       1.783733693755e-16       2.733945731991e-11       3.381679635754e-12      -1.107837536822e-14 
   68       2.562400969886e-10       4.197960927852e-14      -6.998425597266e-13       1.837524072704e-16       2.639515146305e-11       3.280005097656e-12      -1.086441366571e-14 
   69       2.596536650794e-10       4.374186056106e-14      -7.597339552406e-13       1.892108498435e-16       2.549031899780e-11       3.182192689776e-12      -1.064193956470e-14 
   70       2.631008559418e-10       4.553523259867e-14      -8.213450966458e-13       1.947487615657e-16       2.462515861892e-11       3.088304714753e-12      -1.041380828063e-14 
   71       2.665824465163e-10       4.735887318925e-14      -8.846466460607e-13       2.003662219800e-16       2.379917241841e-11       2.998333649993e-12      -1.018314183423e-14 
   72       2.700986947337e-10       4.921188598585e-14      -9.496066676775e-13       2.060633264161e-16       2.301112989494e-11       2.912198438365e-12      -9.953336813380e-15 
   73       2.736493077953e-10       5.109333041900e-14      -1.016190609428e-12       2.118401867048e-16       2.225903196335e-11       2.829740778888e-12      -9.728072134990e-15 
   74       2.772334104513e-10       5.300222161898e-14      -1.084361284647e-12       2.176969318924e-16       2.154007496407e-11       2.750721417421e-12      -9.511316806871e-15 
   75       2.808495132812e-10       5.493753033809e-14      -1.154078853742e-12       2.236337089559e-16       2.085061467256e-11       2.674816437352e-12      -9.307337689597e-15 
   76       2.844961689978e-10       5.689813750322e-14      -1.225302357741e-12       2.296506738696e-16       2.018706943872e-11       2.601701517407e-12      -9.119936447145e-15 
   77       2.881741496510e-10       5.888268847730e-14      -1.297994682331e-12       2.357479613473e-16       1.954889929761e-11       2.531330643090e-12      -8.949982599007e-15 
   78       2.918846106628e-10       6.088971195707e-14      -1.372118469934e-12       2.419257108552e-16       1.893610725038e-11       2.463701716678e-12      -8.797442619927e-15 
   79       2.956284206955e-10       6.291766199338e-14      -1.447634661393e-12       2.481840762781e-16       1.834833186635e-11       2.398771224293e-12      -8.662102928199e-15 
   80       2.994061440398e-10       6.496491698316e-14      -1.524502509463e-12       2.545232264359e-16       1.778483055014e-11       2.336452330419e-12      -8.543561841422e-15 
   81       3.032180230030e-10       6.702977866136e-14      -1.602679592296e-12       2.609433456005e-16       1.724446280870e-11       2.276612972439e-12      -8.441221532265e-15 
   82       3.070639602961e-10       6.911047109289e-14      -1.682121826932e-12       2.674446340125e-16       1.672567351842e-11       2.219073955154e-12      -8.354279984226e-15 
   83       3.109435014226e-10       7.120513966457e-14      -1.762783482785e-12       2.740273083979e-16       1.622647619216e-11       2.163607045316e-12      -8.281722947396e-15 
   84       3.148561309411e-10       7.331191103004e-14      -1.844616578885e-12       2.806915993822e-16       1.574493479587e-11       2.109990142059e-12      -8.222284798963e-15 
   85       3.188022562651e-10       7.542908657068e-14      -1.927568931245e-12       2.874377421089e-16       1.528073762600e-11       2.058187470759e-12      -8.174341290314e-15 
   86       3.227823554242e-10       7.755497930731e-14      -2.011585805011e-12       2.942659850059e-16       1.483385488173e-11       2.008195906805e-12      -8.135984188290e-15 
   87       3.267966655339e-10       7.968785581489e-14      -2.096610505017e-12       3.011765932074e-16       1.440405508303e-11       1.959989623406e-12      -8.105042349002e-15 
   88       3.308451704593e-10       8.182593623891e-14      -2.182584378913e-12       3.081698490187e-16       1.399089671673e-11       1.913519145381e-12      -8.079073150980e-15 
   89       3.349275884776e-10       8.396739431168e-14      -2.269446820297e-12       3.152460523807e-16       1.359371988254e-11       1.868710402944e-12      -8.055353928326e-15 
   90       3.390433599417e-10       8.611035736879e-14      -2.357135271847e-12       3.224055213344e-16       1.321163793913e-11       1.825463785490e-12      -8.030873403864e-15 
   91       3.431916349428e-10       8.825290636541e-14      -2.445585228452e-12       3.296485924856e-16       1.284352915018e-11       1.783653195379e-12      -8.002323122295e-15 
   92       3.473712609740e-10       9.039307589267e-14      -2.534730240341e-12       3.369756214692e-16       1.248802833043e-11       1.743125101725e-12      -7.966088883346e-15 
   93       3.515811281046e-10       9.252888739989e-14      -2.624503130040e-12       3.443869938236e-16       1.214385012281e-11       1.703736746741e-12      -7.919105136801e-15 
   94       3.558212906855e-10       9.465845454130e-14      -2.714839845819e-12       3.518831584742e-16       1.181083259254e-11       1.665479393143e-12      -7.861583767838e-15 
   95       3.600919923237e-10       9.677989377742e-14      -2.805676196286e-12       3.594646001682e-16       1.148903587439e-11       1.628371949961e-12      -7.794681791616e-15 
   96       3.643933160729e-10       9.889129304686e-14      -2.896946707733e-12       3.671318301128e-16       1.117842077597e-11       1.592423068312e-12      -7.719678194637e-15 
   97       3.687251770040e-10       1.009907122385e-13      -2.988584643929e-12       3.748853865831e-16       1.087884497603e-11       1.557630732627e-12      -7.637977213636e-15 
   98       3.730873147757e-10       1.030761836634e-13      -3.080522025912e-12       3.827258355295e-16       1.059005922280e-11       1.523981851876e-12      -7.551111614466e-15 
   99       3.774792862051e-10       1.051457125276e-13      -3.172689651783e-12       3.906537711849e-16       1.031170353223e-11       1.491451850798e-12      -7.460745970992e-15 
  100       3.819004578384e-10       1.071972774036e-13      -3.265017116496e-12       3.986698166724e-16       1.004330338635e-11       1.460004261121e-12      -7.368679943972e-15 
  101       3.863499985211e-10       1.092288307030e-13      -3.357432831656e-12       4.067746246128e-16       9.784265931521e-12       1.429590312798e-12      -7.276851559953e-15 
  102       3.908268719693e-10       1.112382991483e-13      -3.449864045308e-12       4.149688777318e-16       9.533876176764e-12       1.400148525224e-12      -7.187340490150e-15 
  103       3.953298293396e-10       1.132235842455e-13      -3.542236861732e-12       4.232532894677e-16       9.291293192051e-12       1.371604298471e-12      -7.102371329343e-15 
  104       3.998576669419e-10       1.151826139185e-13      -3.634476824140e-12       4.316285811674e-16       9.055740367146e-12       1.343886934507e-12      -7.023829684962e-15 
  105       4.044100550269e-10       1.171135043396e-13      -3.726510709796e-12       4.400954088580e-16       8.827113646994e-12       1.316984199965e-12      -6.951728934314e-15 
  106       4.089868076263e-10       1.190144209420e-13      -3.818265015421e-12       4.486544276693e-16       8.605448755106e-12       1.290894406255e-12      -6.885541497193e-15 
  107       4.135876229472e-10       1.208835302314e-13      -3.909665441605e-12       4.573063147082e-16       8.390732821098e-12       1.265609423134e-12      -6.824665480451e-15 
