# dimensionless total [l(l+1)/2pi] C_l's
# for l=2 to 3000, i.e. number of multipoles equal to 2999
#
# -> if you prefer output in CAMB/HealPix/LensPix units/order, set 'format' to 'camb' in input file
# -> if you don't want to see such a header, set 'headers' to 'no' in input file
# -> for CMB lensing (phi), these are C_l^phi-phi for the lensing potential.
#    Remember the conversion factors:
#    C_l^dd (deflection) = l(l+1) C_l^phi-phi
#    C_l^gg (shear/convergence) = 1/4 (l(l+1))^2 C_l^phi-phi
#
# 1:l     2:TT                     3:EE                     4:TE                     5:BB                     6:phiphi                 7:TPhi                   8:Ephi               
    2       1.513650554828e-10       4.793977351341e-15       3.799600221733e-13       0.000000000000e+00       8.309000098571e-09       5.059155303747e-10      -2.012674792405e-12 
    3       1.417619274893e-10       6.054222719501e-15       4.281383512888e-13       0.000000000000e+00       5.129846229396e-09       3.573093468204e-10      -1.512230135340e-12 
    4       1.331023022188e-10       5.148264101829e-15       3.998200986482e-13       0.000000000000e+00       3.573441817741e-09       2.695820670614e-10      -9.767997812245e-13 
    5       1.266647795329e-10       3.372232808494e-15       3.391781739162e-13       0.000000000000e+00       2.668765735264e-09       2.123150450058e-10      -5.310326372194e-13 
    6       1.222139272419e-10       1.854996683451e-15       2.715895650526e-13       0.000000000000e+00       2.084704472062e-09       1.723365078938e-10      -2.072602275743e-13 
    7       1.192628721934e-10       9.971013232719e-16       2.117243078807e-13       0.000000000000e+00       1.680652449588e-09       1.430932829279e-10      -5.088568336165e-15 
    8       1.174528277661e-10       6.484154746933e-16       1.659085882396e-13       0.000000000000e+00       1.387213521736e-09       1.209783934461e-10       9.391039752254e-14 
    9       1.164852327251e-10       5.208390299383e-16       1.354193415819e-13       0.000000000000e+00       1.166720015621e-09       1.038410713363e-10       1.170798532124e-13 
   10       1.161126337641e-10       4.388740065080e-16       1.186550724975e-13       0.000000000000e+00       9.966445136114e-10       9.028122662595e-11       9.395971740201e-14 
   11       1.162387003068e-10       3.648821884731e-16       1.125840492780e-13       0.000000000000e+00       8.432541872866e-10       7.968664094454e-11       5.145278996289e-14 
   12       1.167175640506e-10       3.171947341966e-16       1.137802965090e-13       0.000000000000e+00       7.367244324510e-10       7.043699061102e-11       8.506078863810e-15 
   13       1.174794988465e-10       3.043685145096e-16       1.192700286841e-13       0.000000000000e+00       6.492731963675e-10       6.289434888299e-11      -2.257353261250e-14 
   14       1.184515835988e-10       3.151777229976e-16       1.268696618854e-13       0.000000000000e+00       5.765134032063e-10       5.630794016210e-11      -3.807953849311e-14 
   15       1.196314662976e-10       3.376050412609e-16       1.351608069172e-13       0.000000000000e+00       5.152689378605e-10       5.077132406831e-11      -3.911756903042e-14 
   16       1.209595257005e-10       3.710547763206e-16       1.435394961736e-13       0.000000000000e+00       4.631977286291e-10       4.602158647114e-11      -3.059025272661e-14 
   17       1.224254933209e-10       4.221558835926e-16       1.519074110789e-13       0.000000000000e+00       4.185304765336e-10       4.189355959934e-11      -1.835723382270e-14 
   18       1.239813248602e-10       4.958450736042e-16       1.605051062668e-13       0.000000000000e+00       3.797638445784e-10       3.827115335139e-11      -7.624591815712e-15 
   19       1.256385421294e-10       5.918758702513e-16       1.695733359216e-13       0.000000000000e+00       3.462794451093e-10       3.511470908575e-11      -8.584099778440e-16 
   20       1.273759407672e-10       7.077018088370e-16       1.792922252925e-13       0.000000000000e+00       3.167896428435e-10       3.233044589717e-11       6.145738754013e-16 
   21       1.291997601039e-10       8.427187342137e-16       1.896153152422e-13       0.000000000000e+00       2.908312398192e-10       2.986692910877e-11      -2.207657012022e-15 
   22       1.310915764294e-10       9.965781561786e-16       2.003208197852e-13       0.000000000000e+00       2.677823686061e-10       2.764759161891e-11      -7.115606168678e-15 
   23       1.330494150702e-10       1.169047177881e-15       2.109693238406e-13       0.000000000000e+00       2.473261701050e-10       2.564979397012e-11      -1.224098342789e-14 
   24       1.350562126326e-10       1.359848593050e-15       2.210178043872e-13       0.000000000000e+00       2.289901167015e-10       2.384592168061e-11      -1.575964889693e-14 
   25       1.371228383135e-10       1.569527271579e-15       2.301954238529e-13       0.000000000000e+00       2.125584826335e-10       2.222846264522e-11      -1.704062063542e-14 
   26       1.392498850269e-10       1.799093465594e-15       2.383266208628e-13       0.000000000000e+00       1.977337162176e-10       2.077774378996e-11      -1.603177960541e-14 
   27       1.414231774103e-10       2.050604542872e-15       2.453438611688e-13       0.000000000000e+00       1.843378648703e-10       1.946542620119e-11      -1.354554800956e-14 
   28       1.436158971751e-10       2.326432736023e-15       2.512417626201e-13       0.000000000000e+00       1.721398959750e-10       1.825351939618e-11      -1.074007629474e-14 
   29       1.458382113897e-10       2.628024408066e-15       2.560857881326e-13       0.000000000000e+00       1.610774459106e-10       1.714085549329e-11      -8.251146592117e-15 
   30       1.481011250053e-10       2.956522887148e-15       2.599992175981e-13       0.000000000000e+00       1.510316764289e-10       1.612921898823e-11      -6.645420363948e-15 
   31       1.504046274993e-10       3.313001331328e-15       2.631071449893e-13       0.000000000000e+00       1.417976237011e-10       1.521082235803e-11      -6.413662407451e-15 
   32       1.527511101511e-10       3.698379037845e-15       2.653539737294e-13       0.000000000000e+00       1.333275243186e-10       1.437525686357e-11      -7.275298040588e-15 
   33       1.551341278957e-10       4.113459263973e-15       2.666163422262e-13       0.000000000000e+00       1.255613996175e-10       1.360318005293e-11      -8.596779876122e-15 
   34       1.575404114089e-10       4.558998560912e-15       2.667530825329e-13       0.000000000000e+00       1.183904857386e-10       1.287161868089e-11      -9.698487072549e-15 
   35       1.599744091686e-10       5.035904262021e-15       2.656219044517e-13       0.000000000000e+00       1.117780201025e-10       1.218247831546e-11      -1.034728567124e-14 
   36       1.624405665347e-10       5.545097930836e-15       2.630658366971e-13       0.000000000000e+00       1.056709015139e-10       1.154318017847e-11      -1.042967387374e-14 
   37       1.649383368540e-10       6.087446456440e-15       2.589412703142e-13       0.000000000000e+00       9.998959149310e-11       1.095799598549e-11      -9.879917140474e-15 
   38       1.674701825753e-10       6.663715586987e-15       2.532343306279e-13       0.000000000000e+00       9.471936423682e-11       1.042503861125e-11      -8.879828062113e-15 
   39       1.700349876964e-10       7.274594099921e-15       2.459836472093e-13       0.000000000000e+00       8.984345443062e-11       9.937720930945e-12      -7.729834045535e-15 
   40       1.726250778054e-10       7.920700504632e-15       2.372509991745e-13       0.000000000000e+00       8.531530173138e-11       9.485109737923e-12      -6.801331384261e-15 
   41       1.752305541926e-10       8.602625956925e-15       2.270983558849e-13       0.000000000000e+00       8.107475832685e-11       9.055223830549e-12      -6.434308649833e-15 
   42       1.778555669990e-10       9.321090568956e-15       2.155066396786e-13       0.000000000000e+00       7.710930359889e-11       8.647067191053e-12      -6.579246942428e-15 
   43       1.805062375031e-10       1.007683044625e-14       2.024328775378e-13       0.000000000000e+00       7.340838331737e-11       8.261919504290e-12      -7.046269407213e-15 
   44       1.831858204068e-10       1.087055348932e-14       1.878320121809e-13       0.000000000000e+00       6.994504177154e-11       7.899923758501e-12      -7.599216659513e-15 
   45       1.858954011938e-10       1.170290126925e-14       1.716574311353e-13       0.000000000000e+00       6.668553996551e-11       7.560362863044e-12      -8.011676050100e-15 
   46       1.886369727706e-10       1.257432397403e-14       1.538633940154e-13       0.000000000000e+00       6.362471527339e-11       7.242827468648e-12      -8.261694610363e-15 
   47       1.914107473724e-10       1.348516597465e-14       1.344028606654e-13       0.000000000000e+00       6.075897243073e-11       6.946224504093e-12      -8.390477027402e-15 
   48       1.942139791875e-10       1.443569619582e-14       1.132265245603e-13       0.000000000000e+00       5.807561898038e-11       6.668351578969e-12      -8.449140360899e-15 
   49       1.970407101974e-10       1.542610475604e-14       9.028258275389e-14       0.000000000000e+00       5.555218899578e-11       6.405817193497e-12      -8.499281213300e-15 
   50       1.998845302245e-10       1.645653086295e-14       6.552285461370e-14       0.000000000000e+00       5.316320181715e-11       6.155026256880e-12      -8.599535359985e-15 
   51       2.027483299409e-10       1.752716322050e-14       3.892362974184e-14       0.000000000000e+00       5.090417001736e-11       5.915637121424e-12      -8.759639886609e-15 
   52       2.056367558730e-10       1.863816106846e-14       1.047008132727e-14       0.000000000000e+00       4.877293914136e-11       5.687904999034e-12      -8.974882126652e-15 
   53       2.085533179239e-10       1.978962346508e-14      -1.984952096238e-14       0.000000000000e+00       4.676250360656e-11       5.471669712737e-12      -9.238927548969e-15 
   54       2.115002770584e-10       2.098158739803e-14      -5.204374226662e-14       0.000000000000e+00       4.486068030913e-11       5.266326038672e-12      -9.543727749619e-15 
   55       2.144789496954e-10       2.221404041416e-14      -8.611851595178e-14       0.000000000000e+00       4.305382014782e-11       5.071084046840e-12      -9.879079192209e-15 
   56       2.174909667356e-10       2.348696651031e-14      -1.220790564652e-13       0.000000000000e+00       4.133977004951e-11       4.885893802670e-12      -1.023138184484e-14 
   57       2.205371305752e-10       2.480030833398e-14      -1.599283013167e-13       0.000000000000e+00       3.971755928487e-11       4.710698432828e-12      -1.058441100240e-14 
   58       2.236169318143e-10       2.615395236878e-14      -1.996663063086e-13       0.000000000000e+00       3.818347827934e-11       4.545146292982e-12      -1.091953620289e-14 
   59       2.267284531776e-10       2.754772761116e-14      -2.412902002812e-13       0.000000000000e+00       3.673090954087e-11       4.388572608430e-12      -1.121561561210e-14 
   60       2.298682734351e-10       2.898140424695e-14      -2.847941398584e-13       0.000000000000e+00       3.535015858772e-11       4.239981114748e-12      -1.144889040817e-14 
   61       2.330329253729e-10       3.045464156386e-14      -3.301701161450e-13       0.000000000000e+00       3.403114230950e-11       4.098316496151e-12      -1.159856417330e-14 
   62       2.362238694842e-10       3.196682102025e-14      -3.774106887903e-13       0.000000000000e+00       3.277254168560e-11       3.963394694141e-12      -1.166524344885e-14 
   63       2.394434712626e-10       3.351717318802e-14      -4.265067881026e-13       0.000000000000e+00       3.157441282065e-11       3.835149787935e-12      -1.165646778170e-14 
   64       2.426934998216e-10       3.510482233438e-14      -4.774468993884e-13       0.000000000000e+00       3.043543394263e-11       3.713352671528e-12      -1.158146325115e-14 
   65       2.459750811233e-10       3.672878348785e-14      -5.302170447300e-13       0.000000000000e+00       2.935282699485e-11       3.597601921123e-12      -1.145121723451e-14 
   66       2.492886512087e-10       3.838795950416e-14      -5.848007647627e-13       0.000000000000e+00       2.832227922792e-11       3.487314662562e-12      -1.127855317267e-14 
   67       2.526339094267e-10       4.008113813215e-14      -6.411791004519e-13       0.000000000000e+00       2.733786479172e-11       3.381717438755e-12      -1.107820533577e-14 
   68       2.560103609050e-10       4.180710058817e-14      -6.993305703427e-13       0.000000000000e+00       2.639362494253e-11       3.280049257241e-12      -1.086427390269e-14 
   69       2.594191761485e-10       4.356497938460e-14      -7.592311376867e-13       0.000000000000e+00       2.548885574295e-11       3.182238922751e-12      -1.064182427193e-14 
   70       2.628616259553e-10       4.535396806905e-14      -8.208542038880e-13       0.000000000000e+00       2.462375585643e-11       3.088349174497e-12      -1.041371204120e-14 
   71       2.663384943826e-10       4.717321605041e-14      -8.841705944311e-13       0.000000000000e+00       2.379782738851e-11       2.998373009939e-12      -1.018305971016e-14 
   72       2.698500470468e-10       4.902182851667e-14      -9.491485405434e-13       0.000000000000e+00       2.300983989860e-11       2.912229978806e-12      -9.953264446385e-15 
   73       2.733959994227e-10       5.089886635273e-14      -1.015753660856e-12       0.000000000000e+00       2.225779441176e-11       2.829762477133e-12      -9.728005851366e-15 
   74       2.769754851431e-10       5.280334605817e-14      -1.083948943066e-12       0.000000000000e+00       2.153888743051e-11       2.750732041296e-12      -9.511253726420e-15 
   75       2.805870242988e-10       5.473423966511e-14      -1.153694725596e-12       0.000000000000e+00       2.084947494663e-11       2.674815642037e-12      -9.307275838665e-15 
   76       2.842291789412e-10       5.669042924666e-14      -1.224950226653e-12       0.000000000000e+00       2.018597552432e-11       2.601689798176e-12      -9.119874748637e-15 
   77       2.879027276670e-10       5.867056104710e-14      -1.297678493835e-12       0.000000000000e+00       1.954784922535e-11       2.531308818026e-12      -8.949920458405e-15 
   78       2.916088318289e-10       6.067316447874e-14      -1.371842327987e-12       0.000000000000e+00       1.893509904578e-11       2.463670799377e-12      -8.797379848721e-15 
   79       2.953483661870e-10       6.269669417444e-14      -1.447402829048e-12       0.000000000000e+00       1.834736357482e-11       2.398732436715e-12      -8.662039789337e-15 
   80       2.991219013011e-10       6.473952897426e-14      -1.524319409449e-12       0.000000000000e+00       1.778390026299e-11       2.336407116065e-12      -8.543499096248e-15 
   81       3.029296859208e-10       6.679997091212e-14      -1.602549807500e-12       0.000000000000e+00       1.724356869036e-11       2.276563009839e-12      -8.441160488933e-15 
   82       3.067716293778e-10       6.887624420240e-14      -1.682050100785e-12       0.000000000000e+00       1.672481383477e-11       2.219021171681e-12      -8.354222547595e-15 
   83       3.106472839765e-10       7.096649422666e-14      -1.762774719554e-12       0.000000000000e+00       1.622564934001e-11       2.163553631312e-12      -8.281671670408e-15 
   84       3.145561398945e-10       7.306884757842e-14      -1.844675844149e-12       0.000000000000e+00       1.574413930193e-11       2.109938465440e-12      -8.222242687422e-15 
   85       3.184986046251e-10       7.518160585458e-14      -1.927701453166e-12       0.000000000000e+00       1.527997204586e-11       2.058139673392e-12      -8.174310817652e-15 
   86       3.224751543760e-10       7.730308228193e-14      -2.011796974771e-12       0.000000000000e+00       1.483311778428e-11       2.008153766688e-12      -8.135966971489e-15 
   87       3.264860238221e-10       7.943154352807e-14      -2.096905876891e-12       0.000000000000e+00       1.440334506566e-11       1.959954510677e-12      -8.105039058294e-15 
   88       3.305311937501e-10       8.156520971425e-14      -2.182969670248e-12       0.000000000000e+00       1.399021242111e-11       1.913491976955e-12      -8.079083416862e-15 
   89       3.346103787010e-10       8.370225442817e-14      -2.269927911407e-12       0.000000000000e+00       1.359306001107e-11       1.868691595798e-12      -8.055376245884e-15 
   90       3.387230146143e-10       8.584080473682e-14      -2.357718205809e-12       0.000000000000e+00       1.321100127196e-11       1.825453208586e-12      -8.030905034410e-15 
   91       3.428682464711e-10       8.797894119934e-14      -2.446276210814e-12       0.000000000000e+00       1.284291456283e-11       1.783650120228e-12      -8.002359992314e-15 
   92       3.470449159381e-10       9.011469787985e-14      -2.535535638740e-12       0.000000000000e+00       1.248743481205e-11       1.743128151590e-12      -7.966125480757e-15 
   93       3.512519095029e-10       9.224609530040e-14      -2.625429467059e-12       0.000000000000e+00       1.214327677052e-11       1.703743997127e-12      -7.919134788702e-15 
   94       3.554892896152e-10       9.437124494127e-14      -2.715893770592e-12       0.000000000000e+00       1.181027852874e-11       1.665488955102e-12      -7.861600134192e-15 
   95       3.597573116147e-10       9.648826055440e-14      -2.806864473977e-12       0.000000000000e+00       1.148850023057e-11       1.628382141017e-12      -7.794679321755e-15 
   96       3.640560710892e-10       9.859522708242e-14      -2.898276215217e-12       0.000000000000e+00       1.117790270029e-11       1.592432437946e-12      -7.719652218433e-15 
   97       3.683854964663e-10       1.006902011237e-13      -2.990062365287e-12       0.000000000000e+00       1.087834364118e-11       1.557638088496e-12      -7.637924035259e-15 
   98       3.727453416051e-10       1.027712113972e-13      -3.082155047750e-12       0.000000000000e+00       1.058957383407e-11       1.523986286769e-12      -7.551028608726e-15 
   99       3.771351783886e-10       1.048362592077e-13      -3.174485158359e-12       0.000000000000e+00       1.031123333593e-11       1.491452770322e-12      -7.460631682262e-15 
  100       3.815543893152e-10       1.068833189106e-13      -3.266982384675e-12       0.000000000000e+00       1.004284767847e-11       1.460001412136e-12      -7.368534187702e-15 
  101       3.860021600910e-10       1.089103383770e-13      -3.359575225671e-12       0.000000000000e+00       9.783824066633e-12       1.429583812572e-12      -7.276675526763e-15 
  102       3.904774722214e-10       1.109152394588e-13      -3.452191011347e-12       0.000000000000e+00       9.533447577259e-12       1.400138891338e-12      -7.187136852513e-15 
  103       3.949790956036e-10       1.128959184535e-13      -3.544755922335e-12       0.000000000000e+00       9.290877357597e-12       1.371592479448e-12      -7.102144350849e-15 
  104       3.995058428578e-10       1.148502976170e-13      -3.637195565904e-12       0.000000000000e+00       9.055336868594e-12       1.343874241094e-12      -7.023584972425e-15 
  105       4.040573874064e-10       1.167764866247e-13      -3.729436750327e-12       0.000000000000e+00       8.826722070572e-12       1.316971921455e-12      -6.951472057894e-15 
  106       4.086335426095e-10       1.186726438902e-13      -3.821405987880e-12       0.000000000000e+00       8.605068690089e-12       1.290883700393e-12      -6.885277593694e-15 
  107       4.132340054161e-10       1.205369284784e-13      -3.913028985269e-12       0.000000000000e+00       8.390363862811e-12       1.265601301959e-12      -6.824399201356e-15 
