# Matter power spectrum P(k) at redshift z=99
# for k=1.00899e-05 to 203.102 h/Mpc,
# number of wavenumbers equal to 845
#    1:k (h/Mpc)              2:P (Mpc/h)^3        
       1.008985923246e-05       4.868469004153e-03 
       2.251775554681e-05       3.993297228975e-02 
       3.498636120247e-05       4.131544311170e-02 
       4.752690064658e-05       4.678383169324e-02 
       6.017107953230e-05       5.236091370679e-02 
       7.295134796122e-05       6.148123538159e-02 
       8.590117158737e-05       6.929707423491e-02 
       9.905531395762e-05       7.683809169681e-02 
       1.124501334903e-04       8.670143369973e-02 
       1.261238985241e-04       9.662006225788e-02 
       1.401171238832e-04       1.067426839515e-01 
       1.544729323814e-04       1.179927874625e-01 
       1.692374445844e-04       1.285084297002e-01 
       1.844601999316e-04       1.399771988178e-01 
       2.001946119095e-04       1.512330787939e-01 
       2.164984592990e-04       1.635572330152e-01 
       2.334344144703e-04       1.759481839379e-01 
       2.510706081373e-04       1.879889775357e-01 
       2.694812277303e-04       2.012349835906e-01 
       2.887471433953e-04       2.151255018753e-01 
       3.089565513139e-04       2.294882119026e-01 
       3.302056182976e-04       2.445115665614e-01 
       3.525991041420e-04       2.604222943291e-01 
       3.762509287930e-04       2.771465725461e-01 
       4.012846398372e-04       2.948586609238e-01 
       4.278337222871e-04       3.135501368463e-01 
       4.560416775835e-04       3.333021244931e-01 
       4.860617833145e-04       3.543275120635e-01 
       5.180564313506e-04       3.765842416211e-01 
       5.521959330390e-04       4.004410593518e-01 
       5.886566801031e-04       4.256934121720e-01 
       6.276185643138e-04       4.526033868859e-01 
       6.692615934693e-04       4.813104251235e-01 
       7.137617003222e-04       5.118089428082e-01 
       7.612858261435e-04       5.442859408455e-01 
       8.119864671933e-04       5.788239172487e-01 
       8.659959882004e-04       6.154371206617e-01 
       9.234211115549e-04       6.541806627148e-01 
       9.843380583383e-04       6.951445288816e-01 
       1.048788822492e-03       7.382723756927e-01 
       1.116778986862e-03       7.835288980749e-01 
       1.188277341593e-03       8.309176622828e-01 
       1.263217364035e-03       8.803129931117e-01 
       1.341500403710e-03       9.316235886818e-01 
       1.423000229794e-03       9.846986529920e-01 
       1.507568477172e-03       1.039507572031e+00 
       1.595040487038e-03       1.095794196261e+00 
       1.685241074673e-03       1.153435810278e+00 
       1.777989849548e-03       1.212295884683e+00 
       1.873105833077e-03       1.272213030171e+00 
       1.970411240942e-03       1.333027353516e+00 
       2.069734400901e-03       1.394586505583e+00 
       2.170911853969e-03       1.456767791633e+00 
       2.273789735124e-03       1.519439851982e+00 
       2.378224553043e-03       1.582458404722e+00 
       2.484083492891e-03       1.645733650050e+00 
       2.591244358339e-03       1.709139248910e+00 
       2.699595254278e-03       1.772584381457e+00 
       2.809034094327e-03       1.835976774683e+00 
       2.919467999818e-03       1.899235574480e+00 
       3.030812641171e-03       1.962288081579e+00 
       3.142991559080e-03       2.025052080195e+00 
       3.255935491967e-03       2.087471641937e+00 
       3.369581727509e-03       2.149490630761e+00 
       3.483873489548e-03       2.211052238201e+00 
       3.598759366763e-03       2.272106768409e+00 
       3.714192786088e-03       2.332613973962e+00 
       3.830131531369e-03       2.392534632600e+00 
       3.946537306183e-03       2.451827123863e+00 
       4.063375338686e-03       2.510466830731e+00 
       4.180614025754e-03       2.568417873707e+00 
       4.298224613405e-03       2.625659532791e+00 
       4.416180910359e-03       2.682166585103e+00 
       4.534459031676e-03       2.737916767859e+00 
       4.653037169509e-03       2.792894827903e+00 
       4.771895388214e-03       2.847084127866e+00 
       4.891015441268e-03       2.900470957943e+00 
       5.010380607654e-03       2.953042994401e+00 
       5.129975545600e-03       3.004790156886e+00 
       5.249786161774e-03       3.055705883871e+00 
       5.369799494223e-03       3.105782551518e+00 
       5.490003607537e-03       3.155015528184e+00 
       5.610387498875e-03       3.203399212532e+00 
       5.730941013670e-03       3.250934716989e+00 
       5.851654769906e-03       3.297620467956e+00 
       5.972520090068e-03       3.343454186134e+00 
       6.093528939880e-03       3.388438363881e+00 
       6.214673873133e-03       3.432574701976e+00 
       6.335947981903e-03       3.475868161287e+00 
       6.457344851613e-03       3.518319533263e+00 
       6.578858520406e-03       3.559933321912e+00 
       6.700483442374e-03       3.600714150380e+00 
       6.822214454238e-03       3.640670622806e+00 
       6.944046745134e-03       3.679804797548e+00 
       7.065975829162e-03       3.718128301162e+00 
       7.187997520434e-03       3.755648862960e+00 
       7.310107910369e-03       3.792370006874e+00 
       7.432303346994e-03       3.828296509950e+00 
       7.554580416073e-03       3.863443114696e+00 
       7.676935923868e-03       3.897819912851e+00 
       7.799366881390e-03       3.931428759840e+00 
       7.921870489981e-03       3.964276279298e+00 
       8.044444128110e-03       3.996384266893e+00 
       8.167085339271e-03       4.027750284102e+00 
       8.289791820870e-03       4.058388561753e+00 
       8.412561414027e-03       4.088311167005e+00 
       8.535392094189e-03       4.117516914388e+00 
       8.658281962499e-03       4.146023978163e+00 
       8.781229237845e-03       4.173838117444e+00 
       8.904232249532e-03       4.200970610156e+00 
       9.027289430517e-03       4.227428618348e+00 
       9.150399311170e-03       4.253219578488e+00 
       9.273560513504e-03       4.278360303514e+00 
       9.396771745844e-03       4.302849803584e+00 
       9.520031797891e-03       4.326702082887e+00 
       9.643339536152e-03       4.349923544186e+00 
       9.766693899711e-03       4.372520133834e+00 
       9.890093896300e-03       4.394505569939e+00 
       1.001353859866e-02       4.415888102964e+00 
       1.013702714118e-02       4.436677045204e+00 
       1.026055871672e-02       4.456870381997e+00 
       1.038413257374e-02       4.476484019681e+00 
       1.050774801356e-02       4.495526455116e+00 
       1.063140438788e-02       4.513997864475e+00 
       1.075510109639e-02       4.531914821483e+00 
       1.087883758462e-02       4.549280803406e+00 
       1.100261334193e-02       4.566099411169e+00 
       1.112642789957e-02       4.582383347149e+00 
       1.125028082899e-02       4.598132903582e+00 
       1.137417174014e-02       4.613364996278e+00 
       1.149810028000e-02       4.628070659611e+00 
       1.162206613114e-02       4.642272042531e+00 
       1.174606901039e-02       4.655962703176e+00 
       1.187010866765e-02       4.669159182888e+00 
       1.199418488471e-02       4.681864648153e+00 
       1.211829747421e-02       4.694080651441e+00 
       1.224244627863e-02       4.705817128069e+00 
       1.236663116941e-02       4.717076473767e+00 
       1.249085204607e-02       4.727875888256e+00 
       1.261510883545e-02       4.738208441979e+00 
       1.273940149094e-02       4.748081814320e+00 
       1.286372999182e-02       4.757505695201e+00 
       1.298809434267e-02       4.766481545517e+00 
       1.311249457272e-02       4.775018054668e+00 
       1.323693073542e-02       4.783118789060e+00 
       1.336140290784e-02       4.790787639006e+00 
       1.348591119034e-02       4.798038392805e+00 
       1.361045570605e-02       4.804866337924e+00 
       1.373503660061e-02       4.811278305670e+00 
       1.385965404174e-02       4.817283789515e+00 
       1.398430821901e-02       4.822885284366e+00 
       1.410899934352e-02       4.828085955337e+00 
       1.423372764771e-02       4.832897515874e+00 
       1.435849338511e-02       4.837319069230e+00 
       1.448329683018e-02       4.841358429895e+00 
       1.460813827812e-02       4.845018774843e+00 
       1.473301804481e-02       4.848305320365e+00 
       1.485793646664e-02       4.851222576910e+00 
       1.498289390044e-02       4.853778648136e+00 
       1.510789072347e-02       4.855975501897e+00 
       1.523292733332e-02       4.857818831074e+00 
       1.535800414793e-02       4.859311286227e+00 
       1.548312160558e-02       4.860460532834e+00 
       1.560828016494e-02       4.861273369644e+00 
       1.573348030509e-02       4.861743355591e+00 
       1.585872252561e-02       4.861897166515e+00 
       1.598400734663e-02       4.861724457799e+00 
       1.610933530897e-02       4.861216675362e+00 
       1.623470697422e-02       4.860399209815e+00 
       1.636012292492e-02       4.859278888035e+00 
       1.648558376469e-02       4.857841374776e+00 
       1.661109011841e-02       4.856103383254e+00 
       1.673664263240e-02       4.854070308739e+00 
       1.686224197463e-02       4.851741601728e+00 
       1.698788883495e-02       4.849120456133e+00 
       1.711358392534e-02       4.846223801036e+00 
       1.723932798012e-02       4.843031944099e+00 
       1.736512175629e-02       4.839586933819e+00 
       1.749096603375e-02       4.835852571536e+00 
       1.761686161566e-02       4.831858588999e+00 
       1.774280932873e-02       4.827590516176e+00 
       1.786881002356e-02       4.823071696670e+00 
       1.799486457501e-02       4.818297680872e+00 
       1.812097388257e-02       4.813269947508e+00 
       1.824713887072e-02       4.807998488040e+00 
       1.837336048938e-02       4.802479300144e+00 
       1.849963971429e-02       4.796721901823e+00 
       1.862597754748e-02       4.790728115972e+00 
       1.875237501771e-02       4.784504937614e+00 
       1.887883318094e-02       4.778057679860e+00 
       1.900535312085e-02       4.771381221436e+00 
       1.913193594933e-02       4.764490671004e+00 
       1.925858280700e-02       4.757374670330e+00 
       1.938529486380e-02       4.750050446849e+00 
       1.951207331950e-02       4.742512561275e+00 
       1.963891940434e-02       4.734774907831e+00 
       1.976583437961e-02       4.726832702058e+00 
       1.989281953829e-02       4.718696372885e+00 
       2.001987620571e-02       4.710362863570e+00 
       2.014700574018e-02       4.701842644010e+00 
       2.027420953374e-02       4.693118681127e+00 
       2.040148901283e-02       4.684234368797e+00 
       2.052884563906e-02       4.675155590386e+00 
       2.065628090997e-02       4.665899693968e+00 
       2.078379635978e-02       4.656462426788e+00 
       2.091139356027e-02       4.646862046203e+00 
       2.103907412157e-02       4.637100219482e+00 
       2.116683969302e-02       4.627172453501e+00 
       2.129469196411e-02       4.617077139016e+00 
       2.142263266535e-02       4.606834274611e+00 
       2.155066356926e-02       4.596431659043e+00 
       2.167878649131e-02       4.585873241002e+00 
       2.180700329099e-02       4.575160657083e+00 
       2.193531587278e-02       4.564311952809e+00 
       2.206372618728e-02       4.553323058331e+00 
       2.219223623229e-02       4.542190952025e+00 
       2.232084805397e-02       4.530926296617e+00 
       2.244956374803e-02       4.519518937602e+00 
       2.257838546090e-02       4.507989558860e+00 
       2.270731539105e-02       4.496329033219e+00 
       2.283635579024e-02       4.484542017976e+00 
       2.296550896486e-02       4.472641767558e+00 
       2.309477727734e-02       4.460616096861e+00 
       2.322416314755e-02       4.448471281959e+00 
       2.335366905427e-02       4.436222548299e+00 
       2.348329753672e-02       4.423857219511e+00 
       2.361305119611e-02       4.411387491994e+00 
       2.374293269725e-02       4.398810922503e+00 
       2.387294477028e-02       4.386131814739e+00 
       2.400309021230e-02       4.373353261845e+00 
       2.413337188923e-02       4.360473908104e+00 
       2.426379273761e-02       4.347506347973e+00 
       2.439435576651e-02       4.334443553103e+00 
       2.452506405949e-02       4.321290734798e+00 
       2.465592077667e-02       4.308051331571e+00 
       2.478692915676e-02       4.294727784106e+00 
       2.491809251927e-02       4.281320244961e+00 
       2.504941426679e-02       4.267833512709e+00 
       2.518089788722e-02       4.254270812790e+00 
       2.531254695627e-02       4.240638610331e+00 
       2.544436513988e-02       4.226921036576e+00 
       2.557635619681e-02       4.213139975575e+00 
       2.570852398133e-02       4.199287602257e+00 
       2.584087244594e-02       4.185369952421e+00 
       2.597340564424e-02       4.171391425626e+00 
       2.610612773389e-02       4.157349593303e+00 
       2.623904297966e-02       4.143246013864e+00 
       2.637215575665e-02       4.129087234793e+00 
       2.650547055353e-02       4.114872862364e+00 
       2.663899197597e-02       4.100603159166e+00 
       2.677272475021e-02       4.086284188872e+00 
       2.690667372668e-02       4.071914365299e+00 
       2.704084388387e-02       4.057497865864e+00 
       2.717524033223e-02       4.043034947076e+00 
       2.730986831833e-02       4.028527980732e+00 
       2.744473322907e-02       4.013979093564e+00 
       2.757984059617e-02       3.999391361637e+00 
       2.771519610072e-02       3.984763362199e+00 
       2.785080557800e-02       3.970099496367e+00 
       2.798667502244e-02       3.955401038182e+00 
       2.812281059279e-02       3.940669334798e+00 
       2.825921861753e-02       3.925905872808e+00 
       2.839590560043e-02       3.911112062602e+00 
       2.853287822642e-02       3.896290460177e+00 
       2.867014336763e-02       3.881441629868e+00 
       2.880770808975e-02       3.866567977872e+00 
       2.894557965859e-02       3.851670506202e+00 
       2.908376554696e-02       3.836750624387e+00 
       2.922227344183e-02       3.821810949103e+00 
       2.936111125182e-02       3.806851583504e+00 
       2.950028711498e-02       3.791872226514e+00 
       2.963980940692e-02       3.776878168769e+00 
       2.977968674934e-02       3.761868262856e+00 
       2.991992801888e-02       3.746844576195e+00 
       3.006054235642e-02       3.731809387352e+00 
       3.020153917674e-02       3.716759715353e+00 
       3.034292817872e-02       3.701702441076e+00 
       3.048471935591e-02       3.686634817747e+00 
       3.062692300766e-02       3.671561509233e+00 
       3.076954975073e-02       3.656478718560e+00 
       3.091261053153e-02       3.641392086927e+00 
       3.105611663883e-02       3.626298954004e+00 
       3.120007971717e-02       3.611202518619e+00 
       3.134451178094e-02       3.596105166926e+00 
       3.148942522908e-02       3.581004981624e+00 
       3.163483286058e-02       3.565903398875e+00 
       3.178074789075e-02       3.550802998006e+00 
       3.192718396829e-02       3.535703018155e+00 
       3.207415519325e-02       3.520606652443e+00 
       3.222167613596e-02       3.505511425138e+00 
       3.236976185693e-02       3.490419067777e+00 
       3.251842792776e-02       3.475332700122e+00 
       3.266769045326e-02       3.460250083021e+00 
       3.281756609471e-02       3.445174604027e+00 
       3.296807209441e-02       3.430104344219e+00 
       3.311922630162e-02       3.415042056830e+00 
       3.327104719986e-02       3.399984976828e+00 
       3.342355393590e-02       3.384937301616e+00 
       3.357676635028e-02       3.369899374082e+00 
       3.373070500968e-02       3.354867447244e+00 
       3.388539124115e-02       3.339847177652e+00 
       3.404084716838e-02       3.324835302179e+00 
       3.419709575014e-02       3.309833503171e+00 
       3.435416082110e-02       3.294845758023e+00 
       3.451206713503e-02       3.279867816195e+00 
       3.467084041087e-02       3.264900752852e+00 
       3.483050738153e-02       3.249943171073e+00 
       3.499109584590e-02       3.234997928564e+00 
       3.515263472420e-02       3.220066660252e+00 
       3.531515411689e-02       3.205145692371e+00 
       3.547868536756e-02       3.190237526237e+00 
       3.564326112997e-02       3.175339636076e+00 
       3.580891543966e-02       3.160454899070e+00 
       3.597568379052e-02       3.145583919190e+00 
       3.614360321665e-02       3.130724219541e+00 
       3.631271238005e-02       3.115872970569e+00 
       3.648305166451e-02       3.101036577896e+00 
       3.665466327647e-02       3.086210247541e+00 
       3.682759135313e-02       3.071397322253e+00 
       3.700188207881e-02       3.056592874664e+00 
       3.717758380999e-02       3.041799427403e+00 
       3.735474721006e-02       3.027015619120e+00 
       3.753342539455e-02       3.012243875131e+00 
       3.771367408789e-02       2.997478769002e+00 
       3.789555179276e-02       2.982722612386e+00 
       3.807911997330e-02       2.967974602963e+00 
       3.826444325354e-02       2.953233640777e+00 
       3.845158963247e-02       2.938499764999e+00 
       3.864063071773e-02       2.923769069299e+00 
       3.883164197941e-02       2.909046731529e+00 
       3.902470302655e-02       2.894325907085e+00 
       3.921989790844e-02       2.879608638197e+00 
       3.941731544346e-02       2.864891803652e+00 
       3.961704957874e-02       2.850175606246e+00 
       3.981919978381e-02       2.835460231528e+00 
       4.002387148228e-02       2.820741061249e+00 
       4.023117652610e-02       2.806018493566e+00 
       4.044123371716e-02       2.791290705311e+00 
       4.065416938230e-02       2.776555704954e+00 
       4.087011800810e-02       2.761813432032e+00 
       4.108922294299e-02       2.747060893863e+00 
       4.131163717545e-02       2.732294178879e+00 
       4.153752419801e-02       2.717512213939e+00 
       4.176705896879e-02       2.702715345764e+00 
       4.200042898355e-02       2.687896422037e+00 
       4.223783547389e-02       2.673054739350e+00 
       4.247949474925e-02       2.658192042931e+00 
       4.272563970381e-02       2.643298287295e+00 
       4.297652151252e-02       2.628371546265e+00 
       4.323241154501e-02       2.613411145017e+00 
       4.349360353122e-02       2.598413625950e+00 
       4.376041601845e-02       2.583371300489e+00 
       4.403319516735e-02       2.568281913039e+00 
       4.431231794305e-02       2.553140824018e+00 
       4.459819576870e-02       2.537942271988e+00 
       4.489127872208e-02       2.522685054238e+00 
       4.519206037240e-02       2.507355099311e+00 
       4.550108337449e-02       2.491947092706e+00 
       4.581894596305e-02       2.476461223875e+00 
       4.614630952020e-02       2.460882499437e+00 
       4.648390742907e-02       2.445201781504e+00 
       4.683255547441e-02       2.429413566852e+00 
       4.719316411280e-02       2.413510981666e+00 
       4.756675301229e-02       2.397476635556e+00 
       4.795446835950e-02       2.381303727353e+00 
       4.835760355679e-02       2.364986419128e+00 
       4.877762409092e-02       2.348464577227e+00 
       4.921619755703e-02       2.331733178802e+00 
       4.967523007970e-02       2.314784780894e+00 
       5.015691069999e-02       2.297578697262e+00 
       5.066376571099e-02       2.280094764594e+00 
       5.119872543759e-02       2.262285084668e+00 
       5.176520658204e-02       2.244110007338e+00 
       5.236721398511e-02       2.225512955069e+00 
       5.300946643626e-02       2.206419298291e+00 
       5.369755186298e-02       2.186745567504e+00 
       5.443811750858e-02       2.166380985908e+00 
       5.523909986108e-02       2.145180309952e+00 
       5.610999569786e-02       2.122959389466e+00 
       5.706216693470e-02       2.099469702008e+00 
       5.810915311482e-02       2.074379122145e+00 
