# dimensionless total lensed [l(l+1)/2pi] C_l's
# for l=2 to 2500, i.e. number of multipoles equal to 2499
#
# -> if you prefer output in CAMB/HealPix/LensPix units/order, set 'format' to 'camb' in input file
# -> if you don't want to see such a header, set 'headers' to 'no' in input file
# -> for CMB lensing (phi), these are C_l^phi-phi for the lensing potential.
#    Remember the conversion factors:
#    C_l^dd (deflection) = l(l+1) C_l^phi-phi
#    C_l^gg (shear/convergence) = 1/4 (l(l+1))^2 C_l^phi-phi
#
# 1:l     2:TT                     3:EE                     4:TE                     5:BB                     6:phiphi                 7:TPhi                   8:Ephi               
    2       1.513637771163e-10       4.794146812429e-15       3.799555900580e-13       2.253185889633e-19       8.308904379941e-09       5.059096419903e-10      -2.012651340597e-12 
    3       1.417612444912e-10       6.054602923428e-15       4.281333439986e-13       4.507370971088e-19       5.129787221825e-09       3.573051931561e-10      -1.512212515500e-12 
    4       1.331023606959e-10       5.148955578743e-15       3.998153870615e-13       7.514484401140e-19       3.573400761521e-09       2.695789348144e-10      -9.767884003899e-13 
    5       1.266657080825e-10       3.373321113049e-15       3.391741009955e-13       1.127580067989e-18       2.668735107187e-09       2.123125748829e-10      -5.310264500427e-13 
    6       1.222158547375e-10       1.856554380736e-15       2.715861615756e-13       1.579286468414e-18       2.084680568988e-09       1.723345048635e-10      -2.072578124577e-13 
    7       1.192659279861e-10       9.991965003337e-16       2.117214155494e-13       2.106746172998e-18       1.680633171156e-09       1.430916269198e-10      -5.088509029457e-15 
    8       1.174571416338e-10       6.511181765548e-16       1.659059545137e-13       2.710158377072e-18       1.387197588352e-09       1.209769940013e-10       9.390930263659e-14 
    9       1.164909315716e-10       5.242228859265e-16       1.354166767858e-13       3.389739275860e-18       1.166706605163e-09       1.038398640927e-10       1.170784883100e-13 
   10       1.161198472877e-10       4.430149349915e-16       1.186520800783e-13       4.145718226960e-18       9.966330594495e-10       9.028017779995e-11       9.395862299088e-14 
   11       1.162475490131e-10       3.698568025238e-16       1.125804434553e-13       4.978333852226e-18       8.432444682215e-10       7.968572266093e-11       5.145219191321e-14 
   12       1.167281700050e-10       3.230796963264e-16       1.137758023964e-13       5.887830191277e-18       7.367159460786e-10       7.043617991323e-11       8.505980938275e-15 
   13       1.174919720602e-10       3.112406535894e-16       1.192643801620e-13       6.874453014073e-18       6.492657216141e-10       6.289361630796e-11      -2.257326980919e-14 
   14       1.184660434348e-10       3.231142574378e-16       1.268625896360e-13       7.938446391487e-18       5.765067698686e-10       5.630728325854e-11      -3.807909605481e-14 
   15       1.196480144903e-10       3.466835812190e-16       1.351520300571e-13       9.080049610890e-18       5.152630125573e-10       5.077074223346e-11      -3.911711409427e-14 
   16       1.209782726227e-10       3.813531729137e-16       1.435287138068e-13       1.029949450899e-17       4.631924051275e-10       4.602106204451e-11      -3.058989550891e-14 
   17       1.224465293670e-10       4.337521176955e-16       1.518942948705e-13       1.159700327703e-17       4.185256691069e-10       4.189307133368e-11      -1.835701756878e-14 
   18       1.240047529272e-10       5.088172597219e-16       1.604892977210e-13       1.297278656633e-17       3.797594849058e-10       3.827070761151e-11      -7.624500954218e-15 
   19       1.256644624143e-10       6.063022737162e-16       1.695544469929e-13       1.442704336962e-17       3.462754720821e-10       3.511430815337e-11      -8.583999122018e-16 
   20       1.274044426147e-10       7.236608294041e-16       1.792698402134e-13       1.595995807415e-17       3.167860102268e-10       3.233007641896e-11       6.145645603639e-16 
   21       1.292309319405e-10       8.602888436467e-16       1.895889959317e-13       1.757170352931e-17       2.908279067506e-10       2.986658240699e-11      -2.207634366155e-15 
   22       1.311255094560e-10       1.015837849677e-15       2.002901093961e-13       1.926243779690e-17       2.677793014314e-10       2.764727039660e-11      -7.115524625748e-15 
   23       1.330861978939e-10       1.190074928038e-15       2.109337470326e-13       2.103230874669e-17       2.473233388436e-10       2.564949955947e-11      -1.224083903896e-14 
   24       1.350959301466e-10       1.382722794051e-15       2.209768690564e-13       2.288145075302e-17       2.289874968368e-10       2.384565017397e-11      -1.575946120203e-14 
   25       1.371655743372e-10       1.594326155343e-15       2.301486222580e-13       2.480999106638e-17       2.125560521497e-10       2.222820915713e-11      -1.704041786868e-14 
   26       1.392957233544e-10       1.825895033594e-15       2.382734312509e-13       2.681804582832e-17       1.977314565420e-10       2.077750410766e-11      -1.603159120124e-14 
   27       1.414722003248e-10       2.079486527726e-15       2.452837476984e-13       2.890572611588e-17       1.843357594908e-10       1.946519693334e-11      -1.354539180361e-14 
   28       1.436681853151e-10       2.357472546843e-15       2.511741760882e-13       3.107313522929e-17       1.721379310504e-10       1.825329856394e-11      -1.073995391838e-14 
   29       1.458938445504e-10       2.661299080170e-15       2.560101650152e-13       3.332037817234e-17       1.610756083253e-10       1.714064368866e-11      -8.251052800114e-15 
   30       1.481601827522e-10       2.992109019407e-15       2.599149805556e-13       3.564755397575e-17       1.510299544421e-10       1.612902039109e-11      -6.645345170801e-15 
   31       1.504671891565e-10       3.350975028047e-15       2.630137059306e-13       3.805475565728e-17       1.417960079388e-10       1.521064397147e-11      -6.413591763149e-15 
   32       1.528172528196e-10       3.738815888266e-15       2.652507436655e-13       4.054208163713e-17       1.333260059616e-10       1.437510160266e-11      -7.275219936020e-15 
   33       1.552039256826e-10       4.156434294554e-15       2.665027372784e-13       4.310962859300e-17       1.255599705410e-10       1.360304353644e-11      -8.596687201723e-15 
   34       1.576139352367e-10       4.604586183157e-15       2.666285271691e-13       4.575748998893e-17       1.183891390735e-10       1.287148986295e-11      -9.698378532292e-15 
   35       1.600517269198e-10       5.084178245296e-15       2.654858301918e-13       4.848576093922e-17       1.117767494058e-10       1.218234837273e-11      -1.034716437744e-14 
   36       1.625217429469e-10       5.596131356635e-15       2.629176840753e-13       5.129453534853e-17       1.056697009565e-10       1.154304611767e-11      -1.042954757580e-14 
   37       1.650234334101e-10       6.141311669468e-15       2.587804934637e-13       5.418390371773e-17       9.998845616346e-11       1.095786064410e-11      -9.879797404234e-15 
   38       1.675592577305e-10       6.720484161917e-15       2.530604062567e-13       5.715394928276e-17       9.471828939536e-11       1.042490536283e-11      -8.879723554407e-15 
   39       1.701280968623e-10       7.334336796108e-15       2.457960810083e-13       6.020475085220e-17       8.984243553289e-11       9.937591977966e-12      -7.729747701974e-15 
   40       1.727222732343e-10       7.983487215632e-15       2.370493313788e-13       6.333638398834e-17       8.531433477037e-11       9.484985795503e-12      -6.801259042231e-15 
   41       1.753318849890e-10       8.668525654884e-15       2.268821669448e-13       6.654891724925e-17       8.107383998889e-11       9.055104191228e-12      -6.434239715484e-15 
   42       1.779610795822e-10       9.390171233465e-15       2.152755556837e-13       6.984239917070e-17       7.710843071548e-11       8.646951132084e-12      -6.579172166552e-15 
   43       1.806159757531e-10       1.014915900236e-14       2.021865762424e-13       7.321686723754e-17       7.340755284201e-11       8.261806754238e-12      -7.046183718990e-15 
   44       1.832998256905e-10       1.094619574843e-14       1.875702294127e-13       7.667235123949e-17       6.994425096783e-11       7.899814606218e-12      -7.599120135600e-15 
   45       1.860137123518e-10       1.178192185211e-14       1.713799670893e-13       8.020886873070e-17       6.668478648503e-11       7.560258124959e-12      -8.011573577720e-15 
   46       1.887596259693e-10       1.265678617661e-14       1.535701185692e-13       8.382641015609e-17       6.362399682814e-11       7.242727964654e-12      -8.261591029557e-15 
   47       1.915377760539e-10       1.357113167219e-14       1.340937198038e-13       8.752494901373e-17       6.075828677531e-11       6.946130889379e-12      -8.390375541615e-15 
   48       1.943454140567e-10       1.452522576014e-14       1.129015473613e-13       9.130444545628e-17       5.807496401627e-11       6.668264309752e-12      -8.449042174654e-15 
   49       1.971765792086e-10       1.551925697081e-14       8.994188860286e-14       9.516484588281e-17       5.555156288345e-11       6.405736490939e-12      -8.499185149535e-15 
   50       2.000248588855e-10       1.655336281585e-14       6.516665937336e-14       9.910608253082e-17       5.316260301054e-11       6.154952092763e-12      -8.599438113755e-15 
   51       2.028931426707e-10       1.762773012355e-14       3.855224792813e-14       1.031280730682e-16       5.090359702263e-11       5.915569280290e-12      -8.759538438728e-15 
   52       2.057860765913e-10       1.874251612709e-14       1.008393158914e-14       1.072307201851e-16       4.877239048990e-11       5.687843081479e-12      -8.974774548532e-15 
   53       2.087071703622e-10       1.989781776361e-14      -2.024990902224e-14       1.114139111857e-16       4.676197791050e-11       5.471613116265e-12      -9.238813212305e-15 
   54       2.116586850857e-10       2.109366978208e-14      -5.245772110299e-14       1.156775175802e-16       4.486017632058e-11       5.266273937840e-12      -9.543607546643e-15 
   55       2.146419371642e-10       2.233005739297e-14      -8.654531600327e-14       1.200214043737e-16       4.305333677561e-11       5.071035423005e-12      -9.878955382145e-15 
   56       2.176585557160e-10       2.360696223160e-14      -1.225177920588e-13       1.244454615692e-16       4.133930622760e-11       4.885847638585e-12      -1.023125664604e-14 
   57       2.207093408264e-10       2.492432449895e-14      -1.603779687788e-13       1.289495797755e-16       3.971711395886e-11       4.710653782110e-12      -1.058428614569e-14 
   58       2.237937807103e-10       2.628202812366e-14      -2.001257791627e-13       1.335336411670e-16       3.818305043772e-11       4.545102304086e-12      -1.091941283769e-14 
   59       2.269099556281e-10       2.767989943653e-14      -2.417582243987e-13       1.381975194527e-16       3.673049824828e-11       4.388528549892e-12      -1.121549420811e-14 
   60       2.300544418021e-10       2.911770584498e-14      -2.852693285605e-13       1.429410798465e-16       3.534976302010e-11       4.239936401671e-12      -1.144877065267e-14 
   61       2.332237693574e-10       3.059510385324e-14      -3.306509473092e-13       1.477641962987e-16       3.403076175852e-11       4.098270702001e-12      -1.159844505923e-14 
   62       2.364193959260e-10       3.211147248746e-14      -3.778955086034e-13       1.526668077804e-16       3.277217545837e-11       3.963347511740e-12      -1.166512399524e-14 
   63       2.396436839996e-10       3.366603995875e-14      -4.269938095807e-13       1.576488746365e-16       3.157406022393e-11       3.835101032029e-12      -1.165634725654e-14 
   64       2.428983995661e-10       3.525792814353e-14      -4.779341989934e-13       1.627103629456e-16       3.043509429858e-11       3.713302297040e-12      -1.158134121328e-14 
   65       2.461846653342e-10       3.688614965080e-14      -5.307025590036e-13       1.678512450373e-16       2.935249965762e-11       3.597550042159e-12      -1.145109357735e-14 
   66       2.495029139567e-10       3.854960488935e-14      -5.852822869775e-13       1.730715000099e-16       2.832196360115e-11       3.487261572161e-12      -1.127842816969e-14 
   67       2.528528412553e-10       4.024707913508e-14      -6.416542772797e-13       1.783711142472e-16       2.733756034694e-11       3.381663629396e-12      -1.107807968775e-14 
   68       2.562339484987e-10       4.197735124795e-14      -6.997968995857e-13       1.837500896389e-16       2.639333121950e-11       3.279995395982e-12      -1.086414868090e-14 
   69       2.596474013919e-10       4.373955195905e-14      -7.596859694097e-13       1.892084690161e-16       2.548857228971e-11       3.182185677921e-12      -1.064170052052e-14 
   70       2.630944654677e-10       4.553287324700e-14      -8.212947388722e-13       1.947463168227e-16       2.462348221897e-11       3.088297161974e-12      -1.041359065416e-14 
   71       2.665759192183e-10       4.735646303577e-14      -8.845938816877e-13       2.003637125707e-16       2.379756311870e-11       2.998322782444e-12      -1.018294140724e-14 
   72       2.700920223847e-10       4.920942511752e-14      -9.495514748699e-13       2.060607515548e-16       2.300958456249e-11       2.912182014780e-12      -9.953149748012e-15 
   73       2.736424842463e-10       5.109081907525e-14      -1.016132980437e-12       2.118375455667e-16       2.225754759839e-11       2.829717169181e-12      -9.727895052667e-15 
   74       2.772264319103e-10       5.299966020562e-14      -1.084301227118e-12       2.176942236093e-16       2.153864876103e-11       2.750689684198e-12      -9.511146870322e-15 
   75       2.808423786007e-10       5.493491944168e-14      -1.154016392058e-12       2.236309326117e-16       2.084924408386e-11       2.674776420337e-12      -9.307172688069e-15 
   76       2.844888797037e-10       5.689547786091e-14      -1.225237529299e-12       2.296478285085e-16       2.018575217202e-11       2.601653793243e-12      -9.119774821682e-15 
   77       2.881667091138e-10       5.887998080304e-14      -1.297927517469e-12       2.357450460232e-16       1.954763309360e-11       2.531276078600e-12      -8.949823268364e-15 
   78       2.918770239872e-10       6.088695688596e-14      -1.372048985281e-12       2.419227246472e-16       1.893488984476e-11       2.463641359484e-12      -8.797284975078e-15 
   79       2.956206948706e-10       6.291486006824e-14      -1.447562858004e-12       2.481810182942e-16       1.834716101893e-11       2.398706314680e-12      -8.661946888533e-15 
   80       2.993982880937e-10       6.496206864060e-14      -1.524428370887e-12       2.545200958163e-16       1.778370407522e-11       2.336384313502e-12      -8.543407912817e-15 
   81       3.032100481618e-10       6.702688421737e-14      -1.602603082580e-12       2.609401415216e-16       1.724337860677e-11       2.276543510623e-12      -8.441070867029e-15 
   82       3.070558801480e-10       6.910753072802e-14      -1.682042888562e-12       2.674413556905e-16       1.672462960920e-11       2.219004940897e-12      -8.354134442904e-15 
   83       3.109353320855e-10       7.120215340864e-14      -1.762702034559e-12       2.740239550929e-16       1.622547074901e-11       2.163540614184e-12      -8.281585162450e-15 
   84       3.148478901334e-10       7.330887878831e-14      -1.844532519858e-12       2.806881703947e-16       1.574396614412e-11       2.109928582668e-12      -8.222157959176e-15 
   85       3.187939588640e-10       7.542600828356e-14      -1.927482164187e-12       2.874342367522e-16       1.527980412351e-11       2.058132805066e-12      -8.174228030088e-15 
   86       3.227740119593e-10       7.755185499793e-14      -2.011496243484e-12       2.942624025986e-16       1.483295490008e-11       2.008149745690e-12      -8.135886226403e-15 
   87       3.267882817177e-10       7.968468559695e-14      -2.096518074640e-12       3.011729330737e-16       1.440318702499e-11       1.959953119393e-12      -8.104960392491e-15 
   88       3.308367467033e-10       8.182272032471e-14      -2.182489018668e-12       3.081661104881e-16       1.399005903443e-11       1.913492943920e-12      -8.079006796172e-15 
   89       3.349191193950e-10       8.396413302053e-14      -2.269348483872e-12       3.152422347881e-16       1.359291109640e-11       1.868694592251e-12      -8.055301559015e-15 
   90       3.390348338354e-10       8.610705113549e-14      -2.357033929017e-12       3.224016240198e-16       1.321085665743e-11       1.825457844944e-12      -8.030832086632e-15 
   91       3.431830332799e-10       8.824955574911e-14      -2.445480866497e-12       3.296446147941e-16       1.284277408933e-11       1.783655942483e-12      -8.002288498971e-15 
   92       3.473625578458e-10       9.038968158593e-14      -2.534622865507e-12       3.369715627514e-16       1.248729833601e-11       1.743134637627e-12      -7.966055060616e-15 
   93       3.515722918006e-10       9.252545023892e-14      -2.624392768619e-12       3.443828534206e-16       1.214314416301e-11       1.703750572225e-12      -7.919064980297e-15 
   94       3.558122920022e-10       9.465497551952e-14      -2.714726543930e-12       3.518789356586e-16       1.181014966270e-11       1.665495068508e-12      -7.861530485454e-15 
   95       3.600828071303e-10       9.677637405670e-14      -2.805560020835e-12       3.594602941223e-16       1.148837497832e-11       1.628387290532e-12      -7.794609417119e-15 
   96       3.643839258544e-10       9.888773396803e-14      -2.896827747797e-12       3.671274399217e-16       1.117778093465e-11       1.592436176232e-12      -7.719581683916e-15 
   97       3.687155694194e-10       1.009871153322e-13      -2.988463012179e-12       3.748809112261e-16       1.087822523663e-11       1.557640029568e-12      -7.637852543689e-15 
   98       3.730774842318e-10       1.030725506612e-13      -3.080397860065e-12       3.827212738724e-16       1.058945866796e-11       1.523986112670e-12      -7.550955885118e-15 
   99       3.774692344449e-10       1.051420453731e-13      -3.172563116086e-12       3.906491219714e-16       1.031112128974e-11       1.491450237988e-12      -7.460557509352e-15 
  100       3.818901945453e-10       1.071935782644e-13      -3.264888403248e-12       3.986650785159e-16       1.004273863906e-11       1.459996360433e-12      -7.368458411627e-15 
  101       3.863395419379e-10       1.092251019821e-13      -3.357302162756e-12       4.067697959875e-16       9.783717927640e-12       1.429576169527e-12      -7.276598062889e-15 
  102       3.908162495322e-10       1.112345434968e-13      -3.449731673840e-12       4.149639569638e-16       9.533344240421e-12       1.400128681546e-12      -7.187057691421e-15 
  103       3.953190783280e-10       1.132198045744e-13      -3.542103073581e-12       4.232482747261e-16       9.290776734202e-12       1.371579831670e-12      -7.102063564464e-15 
  104       3.998468325324e-10       1.151788133396e-13      -3.634341928334e-12       4.316234704778e-16       9.055238878748e-12       1.343859377407e-12      -7.023502705870e-15 
  105       4.043991801296e-10       1.171096858795e-13      -3.726374993210e-12       4.400902001889e-16       8.826626635599e-12       1.316955087865e-12      -6.951388475963e-15 
  106       4.089759298523e-10       1.190105874525e-13      -3.818128728341e-12       4.486491189555e-16       8.604975730952e-12       1.290865148381e-12      -6.885192866831e-15 
  107       4.135767740735e-10       1.208796843686e-13      -3.909528794084e-12       4.573009038515e-16       8.390273300660e-12       1.265581287932e-12      -6.824313505502e-15 
