# dimensionless total lensed [l(l+1)/2pi] C_l's
# for l=2 to 2500, i.e. number of multipoles equal to 2499
#
# -> if you prefer output in CAMB/HealPix/LensPix units/order, set 'format' to 'camb' in input file
# -> if you don't want to see such a header, set 'headers' to 'no' in input file
# -> for CMB lensing (phi), these are C_l^phi-phi for the lensing potential.
#    Remember the conversion factors:
#    C_l^dd (deflection) = l(l+1) C_l^phi-phi
#    C_l^gg (shear/convergence) = 1/4 (l(l+1))^2 C_l^phi-phi
#
# 1:l     2:TT                     3:EE                     4:TE                     5:BB                     6:phiphi                 7:TPhi                   8:Ephi               
    2       1.513648359376e-10       4.794180338630e-15       3.799582469358e-13       2.253212294204e-19       8.308962221468e-09       5.059131876889e-10      -2.012665415717e-12 
    3       1.417622357831e-10       6.054645265954e-15       4.281363379018e-13       4.507423793128e-19       5.129822845816e-09       3.573076867291e-10      -1.512223089613e-12 
    4       1.331032903269e-10       5.148991589988e-15       3.998181830596e-13       7.514572466323e-19       3.573425524196e-09       2.695808051752e-10      -9.767952300894e-13 
    5       1.266665947577e-10       3.373344708188e-15       3.391764731550e-13       1.127593283050e-18       2.668753562826e-09       2.123140628164e-10      -5.310301638115e-13 
    6       1.222167109106e-10       1.856567370840e-15       2.715880609454e-13       1.579304978273e-18       2.084694968264e-09       1.723357257590e-10      -2.072592627112e-13 
    7       1.192667625679e-10       9.992034978712e-16       2.117228960380e-13       2.106770866271e-18       1.680644798938e-09       1.430926229296e-10      -5.088544673081e-15 
    8       1.174579603915e-10       6.511227430011e-16       1.659071147769e-13       2.710190145034e-18       1.387207219832e-09       1.209778194434e-10       9.390996000639e-14 
    9       1.164917477457e-10       5.242265681101e-16       1.354176236158e-13       3.389779012705e-18       1.166714727614e-09       1.038405912311e-10       1.170793067851e-13 
   10       1.161206626076e-10       4.430180523531e-16       1.186529099464e-13       4.145766830014e-18       9.966400075523e-10       9.028083013841e-11       9.395927771084e-14 
   11       1.162483636850e-10       3.698594111155e-16       1.125812302626e-13       4.978392222121e-18       8.432503505459e-10       7.968627979882e-11       5.145254826459e-14 
   12       1.167289831554e-10       3.230819830016e-16       1.137765967101e-13       5.887899232074e-18       7.367210846332e-10       7.043664807595e-11       8.506038321527e-15 
   13       1.174927940777e-10       3.112428626737e-16       1.192652141278e-13       6.874533633343e-18       6.492702496434e-10       6.289405102527e-11      -2.257342696354e-14 
   14       1.184668782791e-10       3.231165534183e-16       1.268634760403e-13       7.938539500345e-18       5.765107899727e-10       5.630770063663e-11      -3.807936021399e-14 
   15       1.196488538729e-10       3.466860490381e-16       1.351529741407e-13       9.080156123986e-18       5.152666051523e-10       5.077110526061e-11      -3.911738664566e-14 
   16       1.209791180931e-10       3.813558890173e-16       1.435297162688e-13       1.029961534446e-17       4.631956342727e-10       4.602135925062e-11      -3.059011023550e-14 
   17       1.224473824842e-10       4.337552029151e-16       1.518953553565e-13       1.159713935642e-17       4.185285865024e-10       4.189335000071e-11      -1.835714727094e-14 
   18       1.240056200314e-10       5.088208802017e-16       1.604904188664e-13       1.297293881446e-17       3.797621318061e-10       3.827098475690e-11      -7.624556186368e-15 
   19       1.256653448126e-10       6.063065885363e-16       1.695556324570e-13       1.442721271447e-17       3.462778853824e-10       3.511457169960e-11      -8.584085949472e-16 
   20       1.274053331178e-10       7.236659689239e-16       1.792710934340e-13       1.596014544664e-17       3.167882177645e-10       3.233029883071e-11       6.145658992877e-16 
   21       1.292318308115e-10       8.602949395804e-16       1.895903198221e-13       1.757190986319e-17       2.908299331474e-10       2.986676780311e-11      -2.207651948701e-15 
   22       1.311264276683e-10       1.015845041728e-15       2.002915057212e-13       1.926266402847e-17       2.677811670152e-10       2.764746232162e-11      -7.115574470071e-15 
   23       1.330871379032e-10       1.190083351865e-15       2.109352153560e-13       2.103255581467e-17       2.473250617258e-10       2.564970442970e-11      -1.224092366057e-14 
   24       1.350968816309e-10       1.382732576941e-15       2.209784061367e-13       2.288171959829e-17       2.289890918114e-10       2.384582139460e-11      -1.575957263992e-14 
   25       1.371665357171e-10       1.594337428028e-15       2.301502229939e-13       2.481028263183e-17       2.125575325034e-10       2.222833748471e-11      -1.704054037686e-14 
   26       1.392967062222e-10       1.825907935395e-15       2.382750888784e-13       2.681836105861e-17       1.977328334893e-10       2.077763788773e-11      -1.603170431589e-14 
   27       1.414732081305e-10       2.079501212604e-15       2.452854540733e-13       2.890606595730e-17       1.843370430053e-10       1.946535746390e-11      -1.354548373301e-14 
   28       1.436692079157e-10       2.357489185289e-15       2.511759222042e-13       3.107350062953e-17       1.721391294932e-10       1.825345739058e-11      -1.074002581800e-14 
   29       1.458948735019e-10       2.661317853089e-15       2.560119432329e-13       3.332077008046e-17       1.610767296215e-10       1.714077431296e-11      -8.251109727404e-15 
   30       1.481612173336e-10       2.992130116194e-15       2.599167858319e-13       3.564797334195e-17       1.510310056872e-10       1.612911805045e-11      -6.645393458173e-15 
   31       1.504682363729e-10       3.350998646089e-15       2.630155355117e-13       3.805520343278e-17       1.417969947977e-10       1.521072581448e-11      -6.413638560716e-15 
   32       1.528183195747e-10       3.738842231354e-15       2.652525927672e-13       4.054255877416e-17       1.333269337653e-10       1.437518395272e-11      -7.275271016770e-15 
   33       1.552050157952e-10       4.156463571869e-15       2.665045972064e-13       4.311013604469e-17       1.255608442019e-10       1.360313338174e-11      -8.596745765221e-15 
   34       1.576150490349e-10       4.604618608715e-15       2.666303855751e-13       4.575802870922e-17       1.183899627448e-10       1.287158447182e-11      -9.698444759845e-15 
   35       1.600528630588e-10       5.084214038238e-15       2.654876753912e-13       4.848633188287e-17       1.117775269841e-10       1.218244333472e-11      -1.034723626092e-14 
   36       1.625228987184e-10       5.596170740882e-15       2.629195067553e-13       5.129513947110e-17       1.056704359677e-10       1.154313784364e-11      -1.042962085732e-14 
   37       1.650246050350e-10       6.141354873566e-15       2.587822864976e-13       5.418454197546e-17       9.998915157840e-11       1.095794658599e-11      -9.879866048039e-15 
   38       1.675604426791e-10       6.720531420472e-15       2.530621615272e-13       5.715462263268e-17       9.471894808178e-11       1.042498394198e-11      -8.879783288492e-15 
   39       1.701292948369e-10       7.334388350123e-15       2.457977882318e-13       6.020546025210e-17       8.984306024099e-11       9.937662739937e-12      -7.729797542817e-15 
   40       1.727234866458e-10       7.983543312415e-15       2.370509776952e-13       6.333713039670e-17       8.531492792511e-11       9.485049663369e-12      -6.801302060560e-15 
   41       1.753331186057e-10       8.668586548214e-15       2.268837371591e-13       6.654970162521e-17       8.107440359535e-11       9.055163334370e-12      -6.434282590698e-15 
   42       1.779623373004e-10       9.390237184660e-15       2.152770347820e-13       6.984322247406e-17       7.710896669156e-11       8.647007493187e-12      -6.579220515833e-15 
   43       1.806172593571e-10       1.014923028073e-14       2.021879503283e-13       7.321773042872e-17       7.340806303246e-11       8.261861507902e-12      -7.046240358173e-15 
   44       1.833011343593e-10       1.094627263148e-14       1.875714860495e-13       7.667325527951e-17       6.994473703006e-11       7.899867968622e-12      -7.599184444095e-15 
   45       1.860150428199e-10       1.178200462439e-14       1.713810954204e-13       8.020981458111e-17       6.668524984175e-11       7.560309402125e-12      -8.011641771234e-15 
   46       1.887609749556e-10       1.265687512364e-14       1.535711086495e-13       8.382739877876e-17       6.362443886588e-11       7.242776429154e-12      -8.261659569145e-15 
   47       1.915391410502e-10       1.357122707790e-14       1.340945625179e-13       8.752598137079e-17       6.075870885509e-11       6.946176056354e-12      -8.390442279592e-15 
   48       1.943467934979e-10       1.452532790545e-14       1.129022345689e-13       9.130552250999e-17       5.807536741017e-11       6.668305986762e-12      -8.449106652365e-15 
   49       1.971779726534e-10       1.551936613222e-14       8.994241328943e-14       9.516596859556e-17       5.555194870643e-11       6.405774830515e-12      -8.499248911697e-15 
   50       2.000262670446e-10       1.655347926495e-14       6.516701517464e-14       9.910725186496e-17       5.316297219944e-11       6.154987547645e-12      -8.599504443545e-15 
   51       2.028945669104e-10       1.762785412990e-14       3.855242655964e-14       1.031292899858e-16       5.090395048293e-11       5.915602229313e-12      -8.759610131280e-15 
   52       2.057875188352e-10       1.874264795854e-14       1.008392181227e-14       1.072319856475e-16       4.877272911208e-11       5.687873700092e-12      -8.974853142225e-15 
   53       2.087086331436e-10       1.989795768562e-14      -2.025012187421e-14       1.114152261539e-16       4.676230253631e-11       5.471641337298e-12      -9.238898758155e-15 
   54       2.116601716013e-10       2.109381805706e-14      -5.245815562262e-14       1.156788830144e-16       4.486048770696e-11       5.266299410275e-12      -9.543698366228e-15 
   55       2.146434510041e-10       2.233021428148e-14      -8.654599410270e-14       1.200228212331e-16       4.305363558449e-11       5.071057575077e-12      -9.879048252084e-15 
   56       2.176600995245e-10       2.360712799985e-14      -1.225187346759e-13       1.244469308120e-16       4.133959310589e-11       4.885866088807e-12      -1.023134841248e-14 
   57       2.207109157692e-10       2.492449942156e-14      -1.603791943963e-13       1.289511023587e-16       3.971738954660e-11       4.710668485300e-12      -1.058437424394e-14 
   58       2.237953862334e-10       2.628221248465e-14      -2.001273033555e-13       1.335352180464e-16       3.818331534904e-11       4.545113600736e-12      -1.091949541048e-14 
   59       2.269115892056e-10       2.768009353038e-14      -2.417600593603e-13       1.381991515826e-16       3.673075305115e-11       4.388537217672e-12      -1.121557022938e-14 
   60       2.300560986731e-10       2.911790997778e-14      -2.852714826098e-13       1.429427681796e-16       3.535000821488e-11       4.239943709078e-12      -1.144884005705e-14 
   61       2.332254429991e-10       3.059531833958e-14      -3.306534256408e-13       1.477659417861e-16       3.403099777526e-11       4.098278323800e-12      -1.159850868493e-14 
   62       2.364210809557e-10       3.211169763359e-14      -3.778983181411e-13       1.526686113722e-16       3.277240271791e-11       3.963356988670e-12      -1.166518290582e-14 
   63       2.396453771758e-10       3.366627605648e-14      -4.269969606170e-13       1.576507372817e-16       3.157427914746e-11       3.835113587285e-12      -1.165640255374e-14 
   64       2.429001001032e-10       3.525817546806e-14      -4.779377056662e-13       1.627122855922e-16       3.043530529805e-11       3.713318781814e-12      -1.158139402915e-14 
   65       2.461863752290e-10       3.688640845839e-14      -5.307064397927e-13       1.678532286323e-16       2.935270312563e-11       3.597570878868e-12      -1.145114506584e-14 
   66       2.495046383291e-10       3.854987541502e-14      -5.852865652207e-13       1.730735454990e-16       2.832215990024e-11       3.487286695371e-12      -1.127847949786e-14 
   67       2.528545887001e-10       4.024736159013e-14      -6.416589817094e-13       1.783732225753e-16       2.733774979838e-11       3.381692424428e-12      -1.107813202638e-14 
   68       2.562357304180e-10       4.197764582250e-14      -6.998020629641e-13       1.837522617499e-16       2.639351410307e-11       3.280026757284e-12      -1.086420316972e-14 
   69       2.596492279962e-10       4.373985884082e-14      -7.596916209696e-13       1.892107058541e-16       2.548874888026e-11       3.182218460087e-12      -1.064175815226e-14 
   70       2.630963444526e-10       4.553319262698e-14      -8.213009017276e-13       1.947486193325e-16       2.462365279271e-11       3.088330313887e-12      -1.041365222234e-14 
   71       2.665778554018e-10       4.735679510924e-14      -8.846005720244e-13       2.003660816980e-16       2.379772794834e-11       2.998355367182e-12      -1.018300747635e-14 
   72       2.700940173305e-10       4.920977008502e-14      -9.495587011082e-13       2.060631882463e-16       2.300974391218e-11       2.912213230338e-12      -9.953220622579e-15 
   73       2.736445358733e-10       5.109117714371e-14      -1.016140742365e-12       2.118400507703e-16       2.225770171833e-11       2.829746369995e-12      -9.727970745146e-15 
   74       2.772285340885e-10       5.300003158944e-14      -1.084309514993e-12       2.176967982744e-16       2.153879788189e-11       2.750716403486e-12      -9.511227067888e-15 
   75       2.808445207339e-10       5.493530436391e-14      -1.154025185682e-12       2.236335776892e-16       2.084938841094e-11       2.674800393247e-12      -9.307256718266e-15 
   76       2.844910475501e-10       5.689587655043e-14      -1.225246800280e-12       2.296505449515e-16       2.018589188569e-11       2.601674948304e-12      -9.119861678659e-15 
   77       2.881688896161e-10       5.888039347867e-14      -1.297937241756e-12       2.357478347872e-16       1.954776837044e-11       2.531294425593e-12      -8.949911836111e-15 
   78       2.918792068027e-10       6.088738375134e-14      -1.372059147256e-12       2.419255866909e-16       1.893502086137e-11       2.463656963385e-12      -8.797374087694e-15 
   79       2.956228727260e-10       6.291530131048e-14      -1.447573451562e-12       2.481839545791e-16       1.834728794936e-11       2.398719300587e-12      -8.662035332104e-15 
   80       2.994004571518e-10       6.496252442895e-14      -1.524439400547e-12       2.545231073078e-16       1.778382708834e-11       2.336394871708e-12      -8.543494427417e-15 
   81       3.032122084001e-10       6.702735470182e-14      -1.602614564642e-12       2.609432291889e-16       1.724349786352e-11       2.276551901827e-12      -8.441154148862e-15 
   82       3.070580357491e-10       6.910801603787e-14      -1.682054852292e-12       2.674445205071e-16       1.672474525967e-11       2.219011501564e-12      -8.354213146577e-15 
   83       3.109374918398e-10       7.120265365100e-14      -1.762714523413e-12       2.740271980367e-16       1.622558292947e-11       2.163545762048e-12      -8.281657903379e-15 
   84       3.148500667113e-10       7.330939404732e-14      -1.844545589101e-12       2.806914924486e-16       1.574407497735e-11       2.109932797802e-12      -8.222223368499e-15 
   85       3.187961644564e-10       7.542653862150e-14      -1.927495866889e-12       2.874376389032e-16       1.527990973013e-11       2.058136532688e-12      -8.174284976783e-15 
   86       3.227762569665e-10       7.755240045470e-14      -2.011510626272e-12       2.942658858380e-16       1.483305740050e-11       2.008153364459e-12      -8.135933900295e-15 
   87       3.267905745208e-10       7.968524618881e-14      -2.096533176897e-12       3.011764983972e-16       1.440328653802e-11       1.959956932870e-12      -8.104998338348e-15 
   88       3.308390934278e-10       8.182329604306e-14      -2.182504871707e-12       3.081697588964e-16       1.399015567582e-11       1.913497171757e-12      -8.079034948821e-15 
   89       3.349215236671e-10       8.396472383062e-14      -2.269365110090e-12       3.152459672868e-16       1.359300497731e-11       1.868699361109e-12      -8.055320279466e-15 
   90       3.390372965317e-10       8.610765697515e-14      -2.357051341020e-12       3.224054416201e-16       1.321094788287e-11       1.825463179149e-12      -8.030842199215e-15 
   91       3.431855522693e-10       8.825017652741e-14      -2.445499066201e-12       3.296485185129e-16       1.284286275653e-11       1.783661754408e-12      -8.002291329496e-15 
   92       3.473651277248e-10       9.039031718184e-14      -2.534641843218e-12       3.369755536113e-16       1.248738453272e-11       1.743140717801e-12      -7.966052475537e-15 
   93       3.515749043735e-10       9.252610050632e-14      -2.624412504159e-12       3.443869324507e-16       1.214322796804e-11       1.703756609579e-12      -7.919059289821e-15 
   94       3.558149391440e-10       9.465564031231e-14      -2.714747014345e-12       3.518831038940e-16       1.181023115376e-11       1.665500766746e-12      -7.861523912869e-15 
   95       3.600854816135e-10       9.677705323683e-14      -2.805581202469e-12       3.594645526047e-16       1.148845423354e-11       1.628392402397e-12      -7.794603938235e-15 
   96       3.643866214584e-10       9.888842740746e-14      -2.896849616388e-12       3.671317896994e-16       1.117785803186e-11       1.592440508818e-12      -7.719578996904e-15 
   97       3.687182810431e-10       1.009878229148e-13      -2.988485542951e-12       3.748853533544e-16       1.087830025270e-11       1.557643449779e-12      -7.637854038057e-15 
   98       3.730802080088e-10       1.030732722852e-13      -3.080421027827e-12       3.827258094139e-16       1.058953167801e-11       1.523988552826e-12      -7.550962609818e-15 
   99       3.774719678624e-10       1.051427809528e-13      -3.172586895336e-12       3.906537519963e-16       1.031119236639e-11       1.491451701578e-12      -7.460570140016e-15 
  100       3.818929365657e-10       1.071943277326e-13      -3.264912768281e-12       3.986698041024e-16       1.004280785163e-11       1.459996928021e-12      -7.368477216940e-15 
  101       3.863422931238e-10       1.092258652925e-13      -3.357327087773e-12       4.067746182219e-16       9.783785341345e-12       1.429576004801e-12      -7.276622870090e-15 
  102       3.908190121743e-10       1.112353206259e-13      -3.449757133063e-12       4.149688769411e-16       9.533409915502e-12       1.400128037523e-12      -7.187087850941e-15 
  103       3.953218565764e-10       1.132205955245e-13      -3.542129041370e-12       4.232532935502e-16       9.290840725059e-12       1.371579057039e-12      -7.102097913691e-15 
  104       3.998496321973e-10       1.151796181255e-13      -3.634368380846e-12       4.316285892618e-16       9.055301234383e-12       1.343858897282e-12      -7.023539653529e-15 
  105       4.044020074336e-10       1.171105044679e-13      -3.726401914891e-12       4.400954200555e-16       8.826687404288e-12       1.316955303474e-12      -6.951426468760e-15 
  106       4.089787910943e-10       1.190114197425e-13      -3.818156114247e-12       4.486544410372e-16       8.605034961207e-12       1.290866407094e-12      -6.885230524090e-15 
  107       4.135796756137e-10       1.208805301872e-13      -3.909556650746e-12       4.573063292913e-16       8.390331040896e-12       1.265583877919e-12      -6.824349637402e-15 
