# Matter power spectrum P(k) at redshift z=99
# for k=1.00899e-05 to 203.102 h/Mpc,
# number of wavenumbers equal to 845
#    1:k (h/Mpc)              2:P (Mpc/h)^3        
       1.008985923385e-05       8.603044012312e-03 
       2.251775554930e-05       1.859283727164e-02 
       3.498636120606e-05       2.838328957452e-02 
       4.752690065129e-05       3.808723082298e-02 
       6.017107953816e-05       4.776684947144e-02 
       7.295134796828e-05       5.746750389549e-02 
       8.590117159567e-05       6.722714640798e-02 
       9.905531396721e-05       7.708015043888e-02 
       1.124501335013e-04       8.705923776695e-02 
       1.261238985365e-04       9.719662227522e-02 
       1.401171238971e-04       1.075247817983e-01 
       1.544729323969e-04       1.180770368560e-01 
       1.692374446017e-04       1.288880395847e-01 
       1.844601999509e-04       1.399942001467e-01 
       2.001946119308e-04       1.514340954770e-01 
       2.164984593225e-04       1.632488662415e-01 
       2.334344144963e-04       1.754826148590e-01 
       2.510706081659e-04       1.881828115043e-01 
       2.694812277618e-04       2.014006987956e-01 
       2.887471434300e-04       2.151917132073e-01 
       3.089565513521e-04       2.296158934481e-01 
       3.302056183397e-04       2.447382757019e-01 
       3.525991041884e-04       2.606292675372e-01 
       3.762509288441e-04       2.773649540198e-01 
       4.012846398935e-04       2.950273303237e-01 
       4.278337223492e-04       3.137044030644e-01 
       4.560416776520e-04       3.334901099032e-01 
       4.860617833901e-04       3.544840102779e-01 
       5.180564314341e-04       3.767906575132e-01 
       5.521959331310e-04       4.005185965925e-01 
       5.886566802046e-04       4.257789139841e-01 
       6.276185644258e-04       4.526832580661e-01 
       6.692615935926e-04       4.813413325619e-01 
       7.137617004578e-04       5.118578521173e-01 
       7.612858262925e-04       5.443290299949e-01 
       8.119864673565e-04       5.788387495465e-01 
       8.659959883789e-04       6.154546616859e-01 
       9.234211117495e-04       6.542244604037e-01 
       9.843380585498e-04       6.951727141360e-01 
       1.048788822721e-03       7.382985353048e-01 
       1.116778987109e-03       7.835744122112e-01 
       1.188277341859e-03       8.309463048711e-01 
       1.263217364320e-03       8.803352624485e-01 
       1.341500404014e-03       9.316483919591e-01 
       1.423000230117e-03       9.847588256658e-01 
       1.507568477514e-03       1.039531074570e+00 
       1.595040487398e-03       1.095818961138e+00 
       1.685241075052e-03       1.153469814170e+00 
       1.777989849946e-03       1.212328252569e+00 
       1.873105833493e-03       1.272239462800e+00 
       1.970411241375e-03       1.333051894483e+00 
       2.069734401352e-03       1.394619225769e+00 
       2.170911854437e-03       1.456801889566e+00 
       2.273789735608e-03       1.519468054957e+00 
       2.378224553543e-03       1.582494038100e+00 
       2.484083493407e-03       1.645764666899e+00 
       2.591244358870e-03       1.709172965058e+00 
       2.699595254824e-03       1.772620426495e+00 
       2.809034094888e-03       1.836016093684e+00 
       2.919468000394e-03       1.899276621157e+00 
       3.030812641761e-03       1.962325452345e+00 
       3.142991559685e-03       2.025092927070e+00 
       3.255935492585e-03       2.087514898735e+00 
       3.369581728141e-03       2.149533235656e+00 
       3.483873490193e-03       2.211094769680e+00 
       3.598759367421e-03       2.272151746822e+00 
       3.714192786759e-03       2.332659797321e+00 
       3.830131532053e-03       2.392579697975e+00 
       3.946537306880e-03       2.451875105080e+00 
       4.063375339396e-03       2.510514390115e+00 
       4.180614026477e-03       2.568467706175e+00 
       4.298224614140e-03       2.625709905298e+00 
       4.416180911106e-03       2.682217528131e+00 
       4.534459032436e-03       2.737969626668e+00 
       4.653037170281e-03       2.792948619298e+00 
       4.771895388998e-03       2.847138134696e+00 
       4.891015442065e-03       2.900525348932e+00 
       5.010380608463e-03       2.953098150270e+00 
       5.129975546421e-03       3.004845880321e+00 
       5.249786162607e-03       3.055761601995e+00 
       5.369799495068e-03       3.105837943391e+00 
       5.490003608392e-03       3.155071095955e+00 
       5.610387499743e-03       3.203456742945e+00 
       5.730941014549e-03       3.250992158365e+00 
       5.851654770797e-03       3.297676639160e+00 
       5.972520090970e-03       3.343510871990e+00 
       6.093528940795e-03       3.388495107720e+00 
       6.214673874059e-03       3.432631525961e+00 
       6.335947982840e-03       3.475923478812e+00 
       6.457344852562e-03       3.518373387340e+00 
       6.578858521367e-03       3.559987425950e+00 
       6.700483443346e-03       3.600770157995e+00 
       6.822214455222e-03       3.640726047460e+00 
       6.944046746129e-03       3.679862496683e+00 
       7.065975830168e-03       3.718186542885e+00 
       7.187997521452e-03       3.755703299483e+00 
       7.310107911398e-03       3.792423239190e+00 
       7.432303348035e-03       3.828353497817e+00 
       7.554580417124e-03       3.863501944056e+00 
       7.676935924931e-03       3.897875200864e+00 
       7.799366882465e-03       3.931483901661e+00 
       7.921870491067e-03       3.964336824304e+00 
       8.044444129208e-03       3.996442483182e+00 
       8.167085340379e-03       4.027810290505e+00 
       8.289791821990e-03       4.058448314954e+00 
       8.412561415158e-03       4.088367393269e+00 
       8.535392095331e-03       4.117575888725e+00 
       8.658281963652e-03       4.146082802462e+00 
       8.781229239010e-03       4.173896620620e+00 
       8.904232250708e-03       4.201029180877e+00 
       9.027289431704e-03       4.227487123817e+00 
       9.150399312368e-03       4.253279667732e+00 
       9.273560514714e-03       4.278416597210e+00 
       9.396771747065e-03       4.302906279641e+00 
       9.520031799123e-03       4.326756991699e+00 
       9.643339537395e-03       4.349978630379e+00 
       9.766693900965e-03       4.372577316319e+00 
       9.890093897566e-03       4.394563862112e+00 
       1.001353859994e-02       4.415946345586e+00 
       1.013702714247e-02       4.436730507838e+00 
       1.026055871802e-02       4.456925741450e+00 
       1.038413257505e-02       4.476539341261e+00 
       1.050774801489e-02       4.495582161508e+00 
       1.063140438921e-02       4.514054852959e+00 
       1.075510109773e-02       4.531972691861e+00 
       1.087883758598e-02       4.549337765746e+00 
       1.100261334330e-02       4.566156832114e+00 
       1.112642790095e-02       4.582438584677e+00 
       1.125028083038e-02       4.598190341266e+00 
       1.137417174154e-02       4.613417542459e+00 
       1.149810028141e-02       4.628128554863e+00 
       1.162206613256e-02       4.642326520162e+00 
       1.174606901183e-02       4.656021571467e+00 
       1.187010866910e-02       4.669216870259e+00 
       1.199418488617e-02       4.681921801144e+00 
       1.211829747567e-02       4.694137817695e+00 
       1.224244628010e-02       4.705875597380e+00 
       1.236663117090e-02       4.717138631377e+00 
       1.249085204757e-02       4.727932645652e+00 
       1.261510883696e-02       4.738264440373e+00 
       1.273940149246e-02       4.748137844829e+00 
       1.286372999336e-02       4.757561903703e+00 
       1.298809434421e-02       4.766538846927e+00 
       1.311249457428e-02       4.775074302018e+00 
       1.323693073698e-02       4.783174385805e+00 
       1.336140290942e-02       4.790845305247e+00 
       1.348591119193e-02       4.798092811613e+00 
       1.361045570765e-02       4.804920463213e+00 
       1.373503660222e-02       4.811334143350e+00 
       1.385965404336e-02       4.817339702695e+00 
       1.398430822064e-02       4.822941195620e+00 
       1.410899934517e-02       4.828145136319e+00 
       1.423372764937e-02       4.832953688140e+00 
       1.435849338678e-02       4.837376592487e+00 
       1.448329683185e-02       4.841414385112e+00 
       1.460813827981e-02       4.845073605447e+00 
       1.473301804651e-02       4.848360080871e+00 
       1.485793646835e-02       4.851279157038e+00 
       1.498289390217e-02       4.853833815486e+00 
       1.510789072521e-02       4.856031928332e+00 
       1.523292733507e-02       4.857874362513e+00 
       1.535800414968e-02       4.859367186616e+00 
       1.548312160735e-02       4.860518903701e+00 
       1.560828016672e-02       4.861331619115e+00 
       1.573348030688e-02       4.861805375038e+00 
       1.585872252741e-02       4.861950349891e+00 
       1.598400734844e-02       4.861771548071e+00 
       1.610933531079e-02       4.861269624539e+00 
       1.623470697605e-02       4.860455001436e+00 
       1.636012292677e-02       4.859329372308e+00 
       1.648558376655e-02       4.857894063506e+00 
       1.661109012028e-02       4.856157778421e+00 
       1.673664263428e-02       4.854122265489e+00 
       1.686224197652e-02       4.851795582521e+00 
       1.698788883685e-02       4.849180048620e+00 
       1.711358392725e-02       4.846276157986e+00 
       1.723932798205e-02       4.843095093225e+00 
       1.736512175823e-02       4.839636077616e+00 
       1.749096603570e-02       4.835905418291e+00 
       1.761686161762e-02       4.831904577654e+00 
       1.774280933070e-02       4.827648378666e+00 
       1.786881002554e-02       4.823124078986e+00 
       1.799486457700e-02       4.818350253422e+00 
       1.812097388457e-02       4.813324091714e+00 
       1.824713887274e-02       4.808048191200e+00 
       1.837336049141e-02       4.802531556734e+00 
       1.849963971633e-02       4.796775254409e+00 
       1.862597754953e-02       4.790780299077e+00 
       1.875237501977e-02       4.784556466492e+00 
       1.887883318301e-02       4.778103939880e+00 
       1.900535312294e-02       4.771431425943e+00 
       1.913193595143e-02       4.764534807771e+00 
       1.925858280911e-02       4.757424881179e+00 
       1.938529486592e-02       4.750097912195e+00 
       1.951207332163e-02       4.742565319900e+00 
       1.963891940648e-02       4.734824408904e+00 
       1.976583438176e-02       4.726890466947e+00 
       1.989281954046e-02       4.718746914435e+00 
       2.001987620788e-02       4.710412996428e+00 
       2.014700574237e-02       4.701889011319e+00 
       2.027420953594e-02       4.693177939935e+00 
       2.040148901504e-02       4.684281473253e+00 
       2.052884564128e-02       4.675203498945e+00 
       2.065628091220e-02       4.665950033498e+00 
       2.078379636203e-02       4.656523797767e+00 
       2.091139356253e-02       4.646925506864e+00 
       2.103907412384e-02       4.637152431252e+00 
       2.116683969530e-02       4.627226266170e+00 
       2.129469196640e-02       4.617131785507e+00 
       2.142263266765e-02       4.606872202157e+00 
       2.155066357157e-02       4.596472940707e+00 
       2.167878649364e-02       4.585923832651e+00 
       2.180700329333e-02       4.575211243903e+00 
       2.193531587513e-02       4.564362759836e+00 
       2.206372618964e-02       4.553367296457e+00 
       2.219223623466e-02       4.542234986726e+00 
       2.232084805636e-02       4.530971418750e+00 
       2.244956375042e-02       4.519569682474e+00 
       2.257838546331e-02       4.508033858890e+00 
       2.270731539347e-02       4.496378546077e+00 
       2.283635579267e-02       4.484593107036e+00 
       2.296550896730e-02       4.472688132492e+00 
       2.309477727980e-02       4.460667183367e+00 
       2.322416315002e-02       4.448533044070e+00 
       2.335366905675e-02       4.436272797580e+00 
       2.348329753921e-02       4.423908263811e+00 
       2.361305119861e-02       4.411432976181e+00 
       2.374293269977e-02       4.398854506589e+00 
       2.387294477280e-02       4.386179794682e+00 
       2.400309021484e-02       4.373402929695e+00 
       2.413337189178e-02       4.360525413636e+00 
       2.426379274017e-02       4.347557429066e+00 
       2.439435576908e-02       4.334487456836e+00 
       2.452506406208e-02       4.321337712559e+00 
       2.465592077927e-02       4.308094800803e+00 
       2.478692915937e-02       4.294778861046e+00 
       2.491809252189e-02       4.281369894557e+00 
       2.504941426942e-02       4.267874094827e+00 
       2.518089788986e-02       4.254315274970e+00 
       2.531254695892e-02       4.240690596842e+00 
       2.544436514254e-02       4.226969792942e+00 
       2.557635619949e-02       4.213192167112e+00 
       2.570852398403e-02       4.199334359536e+00 
       2.584087244865e-02       4.185426084258e+00 
       2.597340564696e-02       4.171431617801e+00 
       2.610612773662e-02       4.157394619699e+00 
       2.623904298241e-02       4.143293178054e+00 
       2.637215575941e-02       4.129132132244e+00 
       2.650547055630e-02       4.114921080624e+00 
       2.663899197875e-02       4.100641672188e+00 
       2.677272475300e-02       4.086328788765e+00 
       2.690667372948e-02       4.071960860189e+00 
       2.704084388668e-02       4.057537697685e+00 
       2.717524033506e-02       4.043075557647e+00 
       2.730986832117e-02       4.028576012406e+00 
       2.744473323193e-02       4.014028418873e+00 
       2.757984059904e-02       3.999427968148e+00 
       2.771519610360e-02       3.984804147606e+00 
       2.785080558089e-02       3.970150460117e+00 
       2.798667502534e-02       3.955438426763e+00 
       2.812281059571e-02       3.940711417152e+00 
       2.825921862046e-02       3.925945727165e+00 
       2.839590560337e-02       3.911157884832e+00 
       2.853287822937e-02       3.896334336372e+00 
       2.867014337060e-02       3.881480010368e+00 
       2.880770809274e-02       3.866606899907e+00 
       2.894557966159e-02       3.851706535249e+00 
       2.908376554997e-02       3.836795905327e+00 
       2.922227344485e-02       3.821854337926e+00 
       2.936111125486e-02       3.806894340239e+00 
       2.950028711803e-02       3.791919695640e+00 
       2.963980940998e-02       3.776920899786e+00 
       2.977968675242e-02       3.761907041908e+00 
       2.991992802197e-02       3.746883531651e+00 
       3.006054235952e-02       3.731850720254e+00 
       3.020153917986e-02       3.716799775173e+00 
       3.034292818185e-02       3.701744807318e+00 
       3.048471935906e-02       3.686671364560e+00 
       3.062692301082e-02       3.671589670178e+00 
       3.076954975391e-02       3.656520934984e+00 
       3.091261053472e-02       3.641435981372e+00 
       3.105611664203e-02       3.626343188240e+00 
       3.120007972039e-02       3.611249010716e+00 
       3.134451178417e-02       3.596136872741e+00 
       3.148942523232e-02       3.581040298837e+00 
       3.163483286384e-02       3.565941962986e+00 
       3.178074789403e-02       3.550847041253e+00 
       3.192718397158e-02       3.535739778357e+00 
       3.207415519655e-02       3.520643045917e+00 
       3.222167613928e-02       3.505547437864e+00 
       3.236976186026e-02       3.490456056912e+00 
       3.251842793110e-02       3.475381503906e+00 
       3.266769045662e-02       3.460272418048e+00 
       3.281756609808e-02       3.445219365171e+00 
       3.296807209781e-02       3.430144511230e+00 
       3.311922630503e-02       3.415069523218e+00 
       3.327104720329e-02       3.400026033617e+00 
       3.342355393934e-02       3.384973390852e+00 
       3.357676635374e-02       3.369923536659e+00 
       3.373070501315e-02       3.354904977664e+00 
       3.388539124463e-02       3.339885111381e+00 
       3.404084717188e-02       3.324873601931e+00 
       3.419709575366e-02       3.309873161042e+00 
       3.435416082463e-02       3.294882076826e+00 
       3.451206713858e-02       3.279914809734e+00 
       3.467084041444e-02       3.264930712082e+00 
       3.483050738512e-02       3.249970184863e+00 
       3.499109584951e-02       3.235023516066e+00 
       3.515263472782e-02       3.220104868914e+00 
       3.531515412053e-02       3.205181260117e+00 
       3.547868537122e-02       3.190272402856e+00 
       3.564326113364e-02       3.175378522451e+00 
       3.580891544335e-02       3.160489942447e+00 
       3.597568379423e-02       3.145612266409e+00 
       3.614360322038e-02       3.130761256219e+00 
       3.631271238380e-02       3.115904674288e+00 
       3.648305166828e-02       3.101069036619e+00 
       3.665466328025e-02       3.086244637803e+00 
       3.682759135694e-02       3.071426757879e+00 
       3.700188208264e-02       3.056628658155e+00 
       3.717758381384e-02       3.041836429031e+00 
       3.735474721393e-02       3.027051720443e+00 
       3.753342539844e-02       3.012272950177e+00 
       3.771367409180e-02       2.997504387554e+00 
       3.789555179669e-02       2.982755844390e+00 
       3.807911997726e-02       2.968001465509e+00 
       3.826444325751e-02       2.953266765636e+00 
       3.845158963647e-02       2.938533238434e+00 
       3.864063072175e-02       2.923806862308e+00 
       3.883164198345e-02       2.909082988509e+00 
       3.902470303062e-02       2.894359791774e+00 
       3.921989791253e-02       2.879642009207e+00 
       3.941731544758e-02       2.864923707770e+00 
       3.961704958289e-02       2.850205303616e+00 
       3.981919978798e-02       2.835490824321e+00 
       4.002387148648e-02       2.820775081324e+00 
       4.023117653032e-02       2.806052309779e+00 
       4.044123372141e-02       2.791321690504e+00 
       4.065416938658e-02       2.776587444384e+00 
       4.087011801240e-02       2.761848083255e+00 
       4.108922294733e-02       2.747095030350e+00 
       4.131163717982e-02       2.732319823679e+00 
       4.153752420241e-02       2.717538562208e+00 
       4.176705897322e-02       2.702744796316e+00 
       4.200042898802e-02       2.687921196628e+00 
       4.223783547839e-02       2.673086935737e+00 
       4.247949475379e-02       2.658218427967e+00 
       4.272563970839e-02       2.643327838797e+00 
       4.297652151713e-02       2.628404640153e+00 
       4.323241154967e-02       2.613436634033e+00 
       4.349360353592e-02       2.598443506820e+00 
       4.376041602319e-02       2.583398909743e+00 
       4.403319517213e-02       2.568310860093e+00 
       4.431231794788e-02       2.553172138869e+00 
       4.459819577357e-02       2.537974166563e+00 
       4.489127872701e-02       2.522713153384e+00 
       4.519206037738e-02       2.507378379927e+00 
       4.550108337953e-02       2.491977339808e+00 
       4.581894596815e-02       2.476497996587e+00 
       4.614630952536e-02       2.460917621216e+00 
       4.648390743429e-02       2.445226635670e+00 
       4.683255547970e-02       2.429444981715e+00 
       4.719316411816e-02       2.413532537202e+00 
       4.756675301773e-02       2.397496045571e+00 
       4.795446836503e-02       2.381325639050e+00 
       4.835760356241e-02       2.365001979634e+00 
       4.877762409663e-02       2.348492608226e+00 
       4.921619756285e-02       2.331777460021e+00 
       4.967523008562e-02       2.314827713869e+00 
       5.015691070604e-02       2.297632414362e+00 
       5.066376571717e-02       2.280158331043e+00 
       5.119872544391e-02       2.262349637909e+00 
       5.176520658853e-02       2.244191939632e+00 
       5.236721399178e-02       2.225601548692e+00 
       5.300946644312e-02       2.206517480519e+00 
       5.369755187007e-02       2.186849386334e+00 
       5.443811751592e-02       2.166492913895e+00 
       5.523909986870e-02       2.145303450483e+00 
       5.610999570581e-02       2.123091753509e+00 
       5.706216694303e-02       2.099604042822e+00 
       5.810915312358e-02       2.074524890596e+00 
