# Matter power spectrum P(k) at redshift z=99
# for k=1.00899e-05 to 203.102 h/Mpc,
# number of wavenumbers equal to 845
#    1:k (h/Mpc)              2:P (Mpc/h)^3        
       1.008985923246e-05       4.868343904693e-03 
       2.251775554681e-05       3.993227716301e-02 
       3.498636120247e-05       4.131470802159e-02 
       4.752690064658e-05       4.678299237519e-02 
       6.017107953230e-05       5.235998569376e-02 
       7.295134796122e-05       6.148012406408e-02 
       8.590117158737e-05       6.929582038473e-02 
       9.905531395762e-05       7.683669906608e-02 
       1.124501334903e-04       8.669986178230e-02 
       1.261238985241e-04       9.661831591600e-02 
       1.401171238832e-04       1.067407506093e-01 
       1.544729323814e-04       1.179905513142e-01 
       1.692374445844e-04       1.285071817103e-01 
       1.844601999316e-04       1.399748156844e-01 
       2.001946119095e-04       1.512303368560e-01 
       2.164984592990e-04       1.635542617467e-01 
       2.334344144703e-04       1.759449871596e-01 
       2.510706081373e-04       1.879855610982e-01 
       2.694812277303e-04       2.012313264979e-01 
       2.887471433953e-04       2.151215921388e-01 
       3.089565513139e-04       2.294840409124e-01 
       3.302056182976e-04       2.445071223891e-01 
       3.525991041420e-04       2.604175607724e-01 
       3.762509287930e-04       2.771415347804e-01 
       4.012846398372e-04       2.948533011463e-01 
       4.278337222871e-04       3.135444371477e-01 
       4.560416775835e-04       3.332960689351e-01 
       4.860617833145e-04       3.543210698006e-01 
       5.180564313506e-04       3.765774016990e-01 
       5.521959330390e-04       4.004337768814e-01 
       5.886566801031e-04       4.256856723393e-01 
       6.276185643138e-04       4.525951592867e-01 
       6.692615934693e-04       4.813016647152e-01 
       7.137617003222e-04       5.117996422223e-01 
       7.612858261435e-04       5.442760510567e-01 
       8.119864671933e-04       5.788133924850e-01 
       8.659959882004e-04       6.154259319353e-01 
       9.234211115549e-04       6.541687704935e-01 
       9.843380583383e-04       6.951318897760e-01 
       1.048788822492e-03       7.382589532832e-01 
       1.116778986862e-03       7.835146535394e-01 
       1.188277341593e-03       8.309025556056e-01 
       1.263217364035e-03       8.802969884379e-01 
       1.341500403710e-03       9.316066508505e-01 
       1.423000229794e-03       9.846807444006e-01 
       1.507568477172e-03       1.039488672733e+00 
       1.595040487038e-03       1.095774274075e+00 
       1.685241074673e-03       1.153414840872e+00 
       1.777989849548e-03       1.212273844376e+00 
       1.873105833077e-03       1.272189900423e+00 
       1.970411240942e-03       1.333003119094e+00 
       2.069734400901e-03       1.394561151529e+00 
       2.170911853969e-03       1.456741306911e+00 
       2.273789735124e-03       1.519412227519e+00 
       2.378224553043e-03       1.582429634484e+00 
       2.484083492891e-03       1.645703729458e+00 
       2.591244358339e-03       1.709108175533e+00 
       2.699595254278e-03       1.772552154588e+00 
       2.809034094327e-03       1.835943395240e+00 
       2.919467999818e-03       1.899201044963e+00 
       3.030812641171e-03       1.962252405763e+00 
       3.142991559080e-03       2.025015263219e+00 
       3.255935491967e-03       2.087433690117e+00 
       3.369581727509e-03       2.149451551341e+00 
       3.483873489548e-03       2.211012039537e+00 
       3.598759366763e-03       2.272065459715e+00 
       3.714192786088e-03       2.332571565169e+00 
       3.830131531369e-03       2.392491134385e+00 
       3.946537306183e-03       2.451782547639e+00 
       4.063375338686e-03       2.510421188347e+00 
       4.180614025754e-03       2.568371177653e+00 
       4.298224613405e-03       2.625611796041e+00 
       4.416180910359e-03       2.682117820977e+00 
       4.534459031676e-03       2.737866990108e+00 
       4.653037169509e-03       2.792844050578e+00 
       4.771895388214e-03       2.847032365272e+00 
       4.891015441268e-03       2.900418224683e+00 
       5.010380607654e-03       2.952989305288e+00 
       5.129975545600e-03       3.004735526913e+00 
       5.249786161774e-03       3.055650328152e+00 
       5.369799494223e-03       3.105726085305e+00 
       5.490003607537e-03       3.154958166804e+00 
       5.610387498875e-03       3.203340971442e+00 
       5.730941013670e-03       3.250875611601e+00 
       5.851654769906e-03       3.297560513707e+00 
       5.972520090068e-03       3.343393399609e+00 
       6.093528939880e-03       3.388376758350e+00 
       6.214673873133e-03       3.432512293916e+00 
       6.335947981903e-03       3.475804966053e+00 
       6.457344851613e-03       3.518255566132e+00 
       6.578858520406e-03       3.559868598159e+00 
       6.700483442374e-03       3.600648684958e+00 
       6.822214454238e-03       3.640604431028e+00 
       6.944046745134e-03       3.679737894181e+00 
       7.065975829162e-03       3.718060700969e+00 
       7.187997520434e-03       3.755580580452e+00 
       7.310107910369e-03       3.792301056679e+00 
       7.432303346994e-03       3.828226906527e+00 
       7.554580416073e-03       3.863372872161e+00 
       7.676935923868e-03       3.897749045220e+00 
       7.799366881390e-03       3.931357281117e+00 
       7.921870489981e-03       3.964204203279e+00 
       8.044444128110e-03       3.996311607468e+00 
       8.167085339271e-03       4.027677054405e+00 
       8.289791820870e-03       4.058314774454e+00 
       8.412561414027e-03       4.088236835733e+00 
       8.535392094189e-03       4.117442051867e+00 
       8.658281962499e-03       4.145948597488e+00 
       8.781229237845e-03       4.173762230896e+00 
       8.904232249532e-03       4.200894230045e+00 
       9.027289430517e-03       4.227351757162e+00 
       9.150399311170e-03       4.253142248177e+00 
       9.273560513504e-03       4.278282516837e+00 
       9.396771745844e-03       4.302771570864e+00 
       9.520031797891e-03       4.326623416361e+00 
       9.643339536152e-03       4.349844455495e+00 
       9.766693899711e-03       4.372440634275e+00 
       9.890093896300e-03       4.394425670508e+00 
       1.001353859866e-02       4.415807814674e+00 
       1.013702714118e-02       4.436596378850e+00 
       1.026055871672e-02       4.456789353344e+00 
       1.038413257374e-02       4.476402592634e+00 
       1.050774801356e-02       4.495444693139e+00 
       1.063140438788e-02       4.513915792050e+00 
       1.075510109639e-02       4.531832423152e+00 
       1.087883758462e-02       4.549198088488e+00 
       1.100261334193e-02       4.566016388700e+00 
       1.112642789957e-02       4.582300031302e+00 
       1.125028082899e-02       4.598049301159e+00 
       1.137417174014e-02       4.613281098482e+00 
       1.149810028000e-02       4.627986512744e+00 
       1.162206613114e-02       4.642187637400e+00 
       1.174606901039e-02       4.655878049240e+00 
       1.187010866765e-02       4.669074288873e+00 
       1.199418488471e-02       4.681779524030e+00 
       1.211829747421e-02       4.693993403311e+00 
       1.224244627863e-02       4.705730199112e+00 
       1.236663116941e-02       4.716990708333e+00 
       1.249085204607e-02       4.727789926494e+00 
       1.261510883545e-02       4.738122293765e+00 
       1.273940149094e-02       4.747996170833e+00 
       1.286372999182e-02       4.757419194582e+00 
       1.298809434267e-02       4.766394881713e+00 
       1.311249457272e-02       4.774930589541e+00 
       1.323693073542e-02       4.783031822808e+00 
       1.336140290784e-02       4.790700532714e+00 
       1.348591119034e-02       4.797948907885e+00 
       1.361045570605e-02       4.804778976484e+00 
       1.373503660061e-02       4.811190827891e+00 
       1.385965404174e-02       4.817196202367e+00 
       1.398430821901e-02       4.822797595288e+00 
       1.410899934352e-02       4.827998161625e+00 
       1.423372764771e-02       4.832809644546e+00 
       1.435849338511e-02       4.837230133021e+00 
       1.448329683018e-02       4.841270406307e+00 
       1.460813827812e-02       4.844930892370e+00 
       1.473301804481e-02       4.848217169232e+00 
       1.485793646664e-02       4.851134372847e+00 
       1.498289390044e-02       4.853690397477e+00 
       1.510789072347e-02       4.855887211515e+00 
       1.523292733332e-02       4.857731310418e+00 
       1.535800414793e-02       4.859224851405e+00 
       1.548312160558e-02       4.860372161179e+00 
       1.560828016494e-02       4.861184543120e+00 
       1.573348030509e-02       4.861654960834e+00 
       1.585872252561e-02       4.861808769070e+00 
       1.598400734663e-02       4.861636063614e+00 
       1.610933530897e-02       4.861128290537e+00 
       1.623470697422e-02       4.860310839969e+00 
       1.636012292492e-02       4.859190538715e+00 
       1.648558376469e-02       4.857753051729e+00 
       1.661109011841e-02       4.856015091962e+00 
       1.673664263240e-02       4.853982054581e+00 
       1.686224197463e-02       4.851653390100e+00 
       1.698788883495e-02       4.849031882961e+00 
       1.711358392534e-02       4.846136360000e+00 
       1.723932798012e-02       4.842943891416e+00 
       1.736512175629e-02       4.839498943988e+00 
       1.749096603375e-02       4.835764649816e+00 
       1.761686161566e-02       4.831770740075e+00 
       1.774280932873e-02       4.827502745127e+00 
       1.786881002356e-02       4.822984008008e+00 
       1.799486457501e-02       4.818210079229e+00 
       1.812097388257e-02       4.813181555003e+00 
       1.824713887072e-02       4.807911074176e+00 
       1.837336048938e-02       4.802391986904e+00 
       1.849963971429e-02       4.796634693539e+00 
       1.862597754748e-02       4.790641016959e+00 
       1.875237501771e-02       4.784417952050e+00 
       1.887883318094e-02       4.777957464719e+00 
       1.900535312085e-02       4.771294475131e+00 
       1.913193594933e-02       4.764404050340e+00 
       1.925858280700e-02       4.757288179380e+00 
       1.938529486380e-02       4.749964089430e+00 
       1.951207331950e-02       4.742426341274e+00 
       1.963891940434e-02       4.734688828884e+00 
       1.976583437961e-02       4.726746767889e+00 
       1.989281953829e-02       4.718610587030e+00 
       2.001987620571e-02       4.710277229632e+00 
       2.014700574018e-02       4.701757165376e+00 
       2.027420953374e-02       4.693033361514e+00 
       2.040148901283e-02       4.684149211152e+00 
       2.052884563906e-02       4.675070598245e+00 
       2.065628090997e-02       4.665814870568e+00 
       2.078379635978e-02       4.656377775377e+00 
       2.091139356027e-02       4.646786989019e+00 
       2.103907412157e-02       4.637015921117e+00 
       2.116683969302e-02       4.627088336134e+00 
       2.129469196411e-02       4.616993205702e+00 
       2.142263266535e-02       4.606750528051e+00 
       2.155066356926e-02       4.596348102132e+00 
       2.167878649131e-02       4.585789876639e+00 
       2.180700329099e-02       4.575077488014e+00 
       2.193531587278e-02       4.564228981573e+00 
       2.206372618728e-02       4.553240287444e+00 
       2.219223623229e-02       4.542102895556e+00 
       2.232084805397e-02       4.530843934107e+00 
       2.244956374803e-02       4.519436783106e+00 
       2.257838546090e-02       4.507905587640e+00 
       2.270731539105e-02       4.496247301598e+00 
       2.283635579024e-02       4.484460501294e+00 
       2.296550896486e-02       4.472560467888e+00 
       2.309477727734e-02       4.460535016479e+00 
       2.322416314755e-02       4.448395511979e+00 
       2.335366905427e-02       4.436141912810e+00 
       2.348329753672e-02       4.423777474664e+00 
       2.361305119611e-02       4.411307309454e+00 
       2.374293269725e-02       4.398730491971e+00 
       2.387294477028e-02       4.386051791051e+00 
       2.400309021230e-02       4.373273773030e+00 
       2.413337188923e-02       4.360394654208e+00 
       2.426379273761e-02       4.347427330613e+00 
       2.439435576651e-02       4.334364080245e+00 
       2.452506405949e-02       4.321212272852e+00 
       2.465592077667e-02       4.307973033919e+00 
       2.478692915676e-02       4.294649272058e+00 
       2.491809251927e-02       4.281242434994e+00 
       2.504941426679e-02       4.267755948791e+00 
       2.518089788722e-02       4.254193896432e+00 
       2.531254695627e-02       4.240553729007e+00 
       2.544436513988e-02       4.226843813305e+00 
       2.557635619681e-02       4.213063364368e+00 
       2.570852398133e-02       4.199211301227e+00 
       2.584087244594e-02       4.185293825979e+00 
       2.597340564424e-02       4.171316329344e+00 
       2.610612773389e-02       4.157275230109e+00 
       2.623904297966e-02       4.143170723241e+00 
       2.637215575665e-02       4.129012202573e+00 
       2.650547055353e-02       4.114797192539e+00 
       2.663899197597e-02       4.100529356460e+00 
       2.677272475021e-02       4.086210545754e+00 
       2.690667372668e-02       4.071840376605e+00 
       2.704084388387e-02       4.057424140317e+00 
       2.717524033223e-02       4.042960467463e+00 
       2.730986831833e-02       4.028454784005e+00 
       2.744473322907e-02       4.013906162534e+00 
       2.757984059617e-02       3.999318696816e+00 
       2.771519610072e-02       3.984690964454e+00 
       2.785080557800e-02       3.970027366326e+00 
       2.798667502244e-02       3.955328941731e+00 
       2.812281059279e-02       3.940597742109e+00 
       2.825921861753e-02       3.925834418850e+00 
       2.839590560043e-02       3.911041006203e+00 
       2.853287822642e-02       3.896219540071e+00 
       2.867014336763e-02       3.881372504444e+00 
       2.880770808975e-02       3.866497738361e+00 
       2.894557965859e-02       3.851600538769e+00 
       2.908376554696e-02       3.836680929098e+00 
       2.922227344183e-02       3.821741527037e+00 
       2.936111125182e-02       3.806782434717e+00 
       2.950028711498e-02       3.791803351326e+00 
       2.963980940692e-02       3.776809567491e+00 
       2.977968674934e-02       3.761799935789e+00 
       2.991992801888e-02       3.746776523600e+00 
       3.006054235642e-02       3.731741609455e+00 
       3.020153917674e-02       3.716692212461e+00 
       3.034292817872e-02       3.701635217745e+00 
       3.048471935591e-02       3.686567865533e+00 
       3.062692300766e-02       3.671494361077e+00 
       3.076954975073e-02       3.656412317186e+00 
       3.091261053153e-02       3.641324228421e+00 
       3.105611663883e-02       3.626232728648e+00 
       3.120007971717e-02       3.611136948925e+00 
       3.134451178094e-02       3.596039869038e+00 
       3.148942522908e-02       3.580939957720e+00 
       3.163483286058e-02       3.565838653631e+00 
       3.178074789075e-02       3.550738713882e+00 
       3.192718396829e-02       3.535639852107e+00 
       3.207415519325e-02       3.520542114687e+00 
       3.222167613596e-02       3.505447770705e+00 
       3.236976185693e-02       3.490355718631e+00 
       3.251842792776e-02       3.475269610427e+00 
       3.266769045326e-02       3.460187268092e+00 
       3.281756609471e-02       3.445111880337e+00 
       3.296807209441e-02       3.430042081721e+00 
       3.311922630162e-02       3.414980075608e+00 
       3.327104719986e-02       3.399923265296e+00 
       3.342355393590e-02       3.384875878996e+00 
       3.357676635028e-02       3.369838205252e+00 
       3.373070500968e-02       3.354806567623e+00 
       3.388539124115e-02       3.339786566530e+00 
       3.404084716838e-02       3.324774965750e+00 
       3.419709575014e-02       3.309775732989e+00 
       3.435416082110e-02       3.294785305807e+00 
       3.451206713503e-02       3.279808303962e+00 
       3.467084041087e-02       3.264841513479e+00 
       3.483050738153e-02       3.249884207018e+00 
       3.499109584590e-02       3.234939237279e+00 
       3.515263472420e-02       3.220008242354e+00 
       3.531515411689e-02       3.205087289786e+00 
       3.547868536756e-02       3.190178295670e+00 
       3.564326112997e-02       3.175282036813e+00 
       3.580891543966e-02       3.160399312607e+00 
       3.597568379052e-02       3.145526433388e+00 
       3.614360321665e-02       3.130666142813e+00 
       3.631271238005e-02       3.115816538965e+00 
       3.648305166451e-02       3.100980337385e+00 
       3.665466327647e-02       3.086154281336e+00 
       3.682759135313e-02       3.071342163063e+00 
       3.700188207881e-02       3.056537451383e+00 
       3.717758380999e-02       3.041743502287e+00 
       3.735474721006e-02       3.026960698191e+00 
       3.753342539455e-02       3.012189264940e+00 
       3.771367408789e-02       2.997423858155e+00 
       3.789555179276e-02       2.982667760156e+00 
       3.807911997330e-02       2.967920806437e+00 
       3.826444325354e-02       2.953180454662e+00 
       3.845158963247e-02       2.938446507788e+00 
       3.864063071773e-02       2.923716082344e+00 
       3.883164197941e-02       2.908994014886e+00 
       3.902470302655e-02       2.894272936719e+00 
       3.921989790844e-02       2.879556309848e+00 
       3.941731544346e-02       2.864839897648e+00 
       3.961704957874e-02       2.850123970517e+00 
       3.981919978381e-02       2.835408971634e+00 
       4.002387148228e-02       2.820689966273e+00 
       4.023117652610e-02       2.805967669041e+00 
       4.044123371716e-02       2.791240014850e+00 
       4.065416938230e-02       2.776505337280e+00 
       4.087011800810e-02       2.761763413698e+00 
       4.108922294299e-02       2.747010260185e+00 
       4.131163717545e-02       2.732244710010e+00 
       4.153752419801e-02       2.717463016684e+00 
       4.176705896879e-02       2.702666420957e+00 
       4.200042898355e-02       2.687847769550e+00 
       4.223783547389e-02       2.673006360770e+00 
       4.247949474925e-02       2.658144835182e+00 
       4.272563970381e-02       2.643250456855e+00 
       4.297652151252e-02       2.628323391412e+00 
       4.323241154501e-02       2.613363840474e+00 
       4.349360353122e-02       2.598366622875e+00 
       4.376041601845e-02       2.583324574849e+00 
       4.403319516735e-02       2.568235465798e+00 
       4.431231794305e-02       2.553094656261e+00 
       4.459819576870e-02       2.537896384880e+00 
       4.489127872208e-02       2.522638061693e+00 
       4.519206037240e-02       2.507309777309e+00 
       4.550108337449e-02       2.491902055553e+00 
       4.581894596305e-02       2.476416473198e+00 
       4.614630952020e-02       2.460838037032e+00 
       4.648390742907e-02       2.445157609399e+00 
       4.683255547441e-02       2.429369687165e+00 
       4.719316411280e-02       2.413467396842e+00 
       4.756675301229e-02       2.397434518001e+00 
       4.795446835950e-02       2.381260740120e+00 
       4.835760355679e-02       2.364943734996e+00 
       4.877762409092e-02       2.348422196349e+00 
       4.921619755703e-02       2.331691113037e+00 
       4.967523007970e-02       2.314742974174e+00 
       5.015691069999e-02       2.297537267421e+00 
       5.066376571099e-02       2.280053661268e+00 
       5.119872543759e-02       2.262244313934e+00 
       5.176520658204e-02       2.244071160876e+00 
       5.236721398511e-02       2.225472872382e+00 
       5.300946643626e-02       2.206379573538e+00 
       5.369755186298e-02       2.186706212092e+00 
       5.443811750858e-02       2.166342017518e+00 
       5.523909986108e-02       2.145141441968e+00 
       5.610999569786e-02       2.122921235156e+00 
       5.706216693470e-02       2.099431991391e+00 
       5.810915311482e-02       2.074341885971e+00 
