# dimensionless total lensed [l(l+1)/2pi] C_l's
# for l=2 to 2500, i.e. number of multipoles equal to 2499
#
# -> if you prefer output in CAMB/HealPix/LensPix units/order, set 'format' to 'camb' in input file
# -> if you don't want to see such a header, set 'headers' to 'no' in input file
# -> for CMB lensing (phi), these are C_l^phi-phi for the lensing potential.
#    Remember the conversion factors:
#    C_l^dd (deflection) = l(l+1) C_l^phi-phi
#    C_l^gg (shear/convergence) = 1/4 (l(l+1))^2 C_l^phi-phi
#
# 1:l     2:TT                     3:EE                     4:TE                     5:BB                     6:phiphi                 7:TPhi                   8:Ephi               
    2       1.513655407583e-10       4.794202673758e-15       3.799600179931e-13       2.253223720316e-19       8.309000098571e-09       5.059155303747e-10      -2.012674792405e-12 
    3       1.417628957729e-10       6.054673464612e-15       4.281383326579e-13       4.507446654600e-19       5.129846229396e-09       3.573093468204e-10      -1.512230135340e-12 
    4       1.331039110457e-10       5.149015565079e-15       3.998200451084e-13       7.514610589094e-19       3.573441817741e-09       2.695820670614e-10      -9.767997812245e-13 
    5       1.266671835797e-10       3.373360414998e-15       3.391780519297e-13       1.127599005220e-18       2.668765735264e-09       2.123150450058e-10      -5.310326372194e-13 
    6       1.222172777481e-10       1.856576016883e-15       2.715893251471e-13       1.579312995506e-18       2.084704472062e-09       1.723365078938e-10      -2.072602275743e-13 
    7       1.192673164675e-10       9.992081523473e-16       2.117238820458e-13       2.106781565353e-18       1.680652449588e-09       1.430932829279e-10      -5.088568336165e-15 
    8       1.174585087860e-10       6.511257767256e-16       1.659078876106e-13       2.710203914536e-18       1.387213521736e-09       1.209783934461e-10       9.391039752254e-14 
    9       1.164922888392e-10       5.242290109571e-16       1.354182544339e-13       3.389796243112e-18       1.166720015621e-09       1.038410713363e-10       1.170798532124e-13 
   10       1.161211984973e-10       4.430201174097e-16       1.186534625660e-13       4.145787913820e-18       9.966445136114e-10       9.028122662595e-11       9.395971740201e-14 
   11       1.162489022701e-10       3.698611367093e-16       1.125817544121e-13       4.978417553878e-18       8.432541872866e-10       7.968664094454e-11       5.145278996289e-14 
   12       1.167295269526e-10       3.230834905334e-16       1.137771276541e-13       5.887929208408e-18       7.367244324510e-10       7.043699061102e-11       8.506078863810e-15 
   13       1.174933415983e-10       3.112443144439e-16       1.192657691848e-13       6.874568652931e-18       6.492731963675e-10       6.289434888299e-11      -2.257353261250e-14 
   14       1.184674205032e-10       3.231180624910e-16       1.268640670909e-13       7.938579963864e-18       5.765134032063e-10       5.630794016210e-11      -3.807953849311e-14 
   15       1.196494073105e-10       3.466876665402e-16       1.351536040672e-13       9.080202434035e-18       5.152689378605e-10       5.077132406831e-11      -3.911756903042e-14 
   16       1.209796767495e-10       3.813576676064e-16       1.435303845385e-13       1.029966790546e-17       4.631977286291e-10       4.602158647114e-11      -3.059025272661e-14 
   17       1.224479566658e-10       4.337572327401e-16       1.518960623261e-13       1.159719857450e-17       4.185304765336e-10       4.189355959934e-11      -1.835723382270e-14 
   18       1.240061994856e-10       5.088232558807e-16       1.604911650369e-13       1.297300509734e-17       3.797638445784e-10       3.827115335139e-11      -7.624591815712e-15 
   19       1.256659241083e-10       6.063094098954e-16       1.695564205152e-13       1.442728647134e-17       3.462794451093e-10       3.511470908575e-11      -8.584099778440e-16 
   20       1.274059236975e-10       7.236693402937e-16       1.792719286358e-13       1.596022708804e-17       3.167896428435e-10       3.233044589717e-11       6.145738754013e-16 
   21       1.292324354093e-10       8.602989578743e-16       1.895912058031e-13       1.757199980089e-17       2.908312398192e-10       2.986692910877e-11      -2.207657012022e-15 
   22       1.311270337438e-10       1.015849789837e-15       2.002924427918e-13       1.926276267538e-17       2.677823686061e-10       2.764759161891e-11      -7.115606168678e-15 
   23       1.330877424434e-10       1.190088905986e-15       2.109362024144e-13       2.103266358478e-17       2.473261701050e-10       2.564979397012e-11      -1.224098342789e-14 
   24       1.350974968205e-10       1.382739011432e-15       2.209794409872e-13       2.288183690658e-17       2.289901167015e-10       2.384592168061e-11      -1.575964889693e-14 
   25       1.371671648401e-10       1.594344834261e-15       2.301513016329e-13       2.481040989425e-17       2.125584826335e-10       2.222846264522e-11      -1.704062063542e-14 
   26       1.392973383504e-10       1.825916425677e-15       2.382762053500e-13       2.681849869207e-17       1.977337162176e-10       2.077774378996e-11      -1.603177960541e-14 
   27       1.414738408783e-10       2.079510897798e-15       2.452866019321e-13       2.890621437962e-17       1.843378648703e-10       1.946542620119e-11      -1.354554800956e-14 
   28       1.436698530456e-10       2.357500168847e-15       2.511770952479e-13       3.107366025953e-17       1.721398959750e-10       1.825351939618e-11      -1.074007629474e-14 
   29       1.458955405555e-10       2.661330244583e-15       2.560131363297e-13       3.332094133794e-17       1.610774459106e-10       1.714085549329e-11      -8.251146592117e-15 
   30       1.481619069196e-10       2.992144036519e-15       2.599179955345e-13       3.564815664776e-17       1.510316764289e-10       1.612921898823e-11      -6.645420363948e-15 
   31       1.504689400904e-10       3.351014227433e-15       2.630167599473e-13       3.805539920882e-17       1.417976237011e-10       1.521082235803e-11      -6.413662407451e-15 
   32       1.528190294237e-10       3.738859610735e-15       2.652538292460e-13       4.054276744343e-17       1.333275243186e-10       1.437525686357e-11      -7.275298040588e-15 
   33       1.552057276915e-10       4.156482888646e-15       2.665058412245e-13       4.311035803134e-17       1.255613996175e-10       1.360318005293e-11      -8.596779876122e-15 
   34       1.576157632021e-10       4.604640004267e-15       2.666316307888e-13       4.575826443857e-17       1.183904857386e-10       1.287161868089e-11      -9.698487072549e-15 
   35       1.600535817809e-10       5.084237657721e-15       2.654889150342e-13       4.848658178136e-17       1.117780201025e-10       1.218247831546e-11      -1.034728567124e-14 
   36       1.625236258594e-10       5.596196733578e-15       2.629207341116e-13       5.129540396634e-17       1.056709015139e-10       1.154318017847e-11      -1.042967387374e-14 
   37       1.650253456518e-10       6.141383392593e-15       2.587834950107e-13       5.418482149620e-17       9.998959149310e-11       1.095799598549e-11      -9.879917140474e-15 
   38       1.675612005226e-10       6.720562622169e-15       2.530633449415e-13       5.715491760859e-17       9.471936423682e-11       1.042503861125e-11      -8.879828062113e-15 
   39       1.701300712291e-10       7.334422393617e-15       2.457989407248e-13       6.020577111369e-17       8.984345443062e-11       9.937720930945e-12      -7.729834045535e-15 
   40       1.727242798696e-10       7.983580359237e-15       2.370520940110e-13       6.333745757532e-17       8.531530173138e-11       9.485109737923e-12      -6.801331384261e-15 
   41       1.753339241531e-10       8.668626762167e-15       2.268848124981e-13       6.655004555291e-17       8.107475832685e-11       9.055223830549e-12      -6.434308649833e-15 
   42       1.779631511274e-10       9.390280732605e-15       2.152780638486e-13       6.984358358325e-17       7.710930359889e-11       8.647067191053e-12      -6.579246942428e-15 
   43       1.806180790433e-10       1.014927733272e-14       2.021889269590e-13       7.321810915194e-17       7.340838331737e-11       8.261919504290e-12      -7.046269407213e-15 
   44       1.833019594738e-10       1.094632336061e-14       1.875724030589e-13       7.667365204933e-17       6.994504177154e-11       7.899923758501e-12      -7.599216659513e-15 
   45       1.860158748622e-10       1.178205920629e-14       1.713819445865e-13       8.021022982994e-17       6.668553996551e-11       7.560362863044e-12      -8.011676050100e-15 
   46       1.887618158144e-10       1.265693373461e-14       1.535718811913e-13       8.382783293852e-17       6.362471527339e-11       7.242827468648e-12      -8.261694610363e-15 
   47       1.915399925370e-10       1.357128989397e-14       1.340952492114e-13       8.752643487266e-17       6.075897243073e-11       6.946224504093e-12      -8.390477027402e-15 
   48       1.943476572869e-10       1.452539510177e-14       1.129028257250e-13       9.130599578422e-17       5.807561898038e-11       6.668351578969e-12      -8.449140360899e-15 
   49       1.971788502159e-10       1.551943788246e-14       8.994289873131e-14       9.516646207126e-17       5.555218899578e-11       6.405817193497e-12      -8.499281213300e-15 
   50       2.000271594863e-10       1.655355574212e-14       6.516738452051e-14       9.910776596992e-17       5.316320181715e-11       6.155026256880e-12      -8.599535359985e-15 
   51       2.028954744928e-10       1.762793551232e-14       3.855267052435e-14       1.031298251465e-16       5.090417001736e-11       5.915637121424e-12      -8.759639886609e-15 
   52       2.057884407201e-10       1.874273443201e-14       1.008403276481e-14       1.072325422891e-16       4.877293914136e-11       5.687904999034e-12      -8.974882126652e-15 
   53       2.087095672143e-10       1.989804944424e-14      -2.025014962324e-14       1.114158046997e-16       4.676250360656e-11       5.471669712737e-12      -9.238927548969e-15 
   54       2.116611142763e-10       2.109391530412e-14      -5.245832552013e-14       1.156794838861e-16       4.486068030913e-11       5.266326038672e-12      -9.543727749619e-15 
   55       2.146443976480e-10       2.233031722727e-14      -8.654630774628e-14       1.200234448504e-16       4.305382014782e-11       5.071084046840e-12      -9.879079192209e-15 
   56       2.176610468486e-10       2.360723684937e-14      -1.225191945210e-13       1.244475775934e-16       4.133977004951e-11       4.885893802670e-12      -1.023138184484e-14 
   57       2.207118627215e-10       2.492461436987e-14      -1.603798047009e-13       1.289517727218e-16       3.971755928487e-11       4.710698432828e-12      -1.058441100240e-14 
   58       2.237963343401e-10       2.628233371509e-14      -2.001280704820e-13       1.335359124074e-16       3.818347827934e-11       4.545146292982e-12      -1.091953620289e-14 
   59       2.269125429273e-10       2.768022121264e-14      -2.417609920913e-13       1.381998703568e-16       3.673090954087e-11       4.388572608430e-12      -1.121561561210e-14 
   60       2.300570657758e-10       2.911804426594e-14      -2.852725924784e-13       1.429435117809e-16       3.535015858772e-11       4.239981114748e-12      -1.144889040817e-14 
   61       2.332264338827e-10       3.059545937413e-14      -3.306547264122e-13       1.477667106275e-16       3.403114230950e-11       4.098316496151e-12      -1.159856417330e-14 
   62       2.364221045442e-10       3.211184555659e-14      -3.778998224927e-13       1.526694058663e-16       3.277254168560e-11       3.963394694141e-12      -1.166524344885e-14 
   63       2.396464394972e-10       3.366643101641e-14      -4.269986790139e-13       1.576515578415e-16       3.157441282065e-11       3.835149787935e-12      -1.165646778170e-14 
   64       2.429012038409e-10       3.525833762090e-14      -4.779396460310e-13       1.627131326308e-16       3.043543394263e-11       3.713352671528e-12      -1.158146325115e-14 
   65       2.461875192546e-10       3.688657796878e-14      -5.307086071617e-13       1.678541025633e-16       2.935282699485e-11       3.597601921123e-12      -1.145121723451e-14 
   66       2.495058172167e-10       3.855005245747e-14      -5.852889613880e-13       1.730744467365e-16       2.832227922792e-11       3.487314662562e-12      -1.127855317267e-14 
   67       2.528557922221e-10       4.024754635024e-14      -6.416616048569e-13       1.783741515343e-16       2.733786479172e-11       3.381717438755e-12      -1.107820533577e-14 
   68       2.562369443511e-10       4.197783849291e-14      -6.998049084501e-13       1.837532188461e-16       2.639362494253e-11       3.280049257241e-12      -1.086427390269e-14 
   69       2.596504392099e-10       4.374005959968e-14      -7.596946858931e-13       1.892116915041e-16       2.548885574295e-11       3.182238922751e-12      -1.064182427193e-14 
   70       2.630975425538e-10       4.553340163045e-14      -8.213041864611e-13       1.947496339536e-16       2.462375585643e-11       3.088349174497e-12      -1.041371204120e-14 
   71       2.665790331417e-10       4.735701248891e-14      -8.846040806611e-13       2.003671257087e-16       2.379782738851e-11       2.998373009939e-12      -1.018305971016e-14 
   72       2.700951710274e-10       4.920999594530e-14      -9.495624419248e-13       2.060642620661e-16       2.300983989860e-11       2.912229978806e-12      -9.953264446385e-15 
   73       2.736456658505e-10       5.109141155913e-14      -1.016144728301e-12       2.118411548201e-16       2.225779441176e-11       2.829762477133e-12      -9.728005851366e-15 
   74       2.772296451278e-10       5.300027460185e-14      -1.084313764151e-12       2.176979329766e-16       2.153888743051e-11       2.750732041296e-12      -9.511253726420e-15 
   75       2.808456225441e-10       5.493555597958e-14      -1.154029721837e-12       2.236347434680e-16       2.084947494663e-11       2.674815642037e-12      -9.307275838665e-15 
   76       2.844921539992e-10       5.689613674640e-14      -1.225251651385e-12       2.296517422324e-16       2.018597552432e-11       2.601689798176e-12      -9.119874748637e-15 
   77       2.881700139578e-10       5.888066223873e-14      -1.297942431958e-12       2.357490639970e-16       1.954784922535e-11       2.531308818026e-12      -8.949920458405e-15 
   78       2.918803602027e-10       6.088766107766e-14      -1.372064694241e-12       2.419268482568e-16       1.893509904578e-11       2.463670799377e-12      -8.797379848721e-15 
   79       2.956240639655e-10       6.291558722651e-14      -1.447579365795e-12       2.481852489293e-16       1.834736357482e-11       2.398732436715e-12      -8.662039789337e-15 
   80       2.994016923206e-10       6.496281898241e-14      -1.524445684495e-12       2.545244348712e-16       1.778390026299e-11       2.336407116065e-12      -8.543499096248e-15 
   81       3.032134905797e-10       6.702765796783e-14      -1.602621211963e-12       2.609445903953e-16       1.724356869036e-11       2.276563009839e-12      -8.441160488933e-15 
   82       3.070593646854e-10       6.910832812216e-14      -1.682061847005e-12       2.674459157872e-16       1.672481383477e-11       2.219021171681e-12      -8.354222547595e-15 
   83       3.109388636053e-10       7.120297469326e-14      -1.762721839045e-12       2.740286278226e-16       1.622564934001e-11       2.163553631312e-12      -8.281671670408e-15 
   84       3.148514742085e-10       7.330972421701e-14      -1.844553190855e-12       2.806929571732e-16       1.574413930193e-11       2.109938465440e-12      -8.222242687422e-15 
   85       3.187976006263e-10       7.542687808980e-14      -1.927503723547e-12       2.874391390013e-16       1.527997204586e-11       2.058139673392e-12      -8.174310817652e-15 
   86       3.227777157237e-10       7.755274938652e-14      -2.011518713936e-12       2.942674217469e-16       1.483311778428e-11       2.008153766688e-12      -8.135966971489e-15 
   87       3.267920508810e-10       7.968560474207e-14      -2.096541479855e-12       3.011780705563e-16       1.440334506566e-11       1.959954510677e-12      -8.105039058294e-15 
   88       3.308405836396e-10       8.182366436790e-14      -2.182513383322e-12       3.081713677477e-16       1.399021242111e-11       1.913491976955e-12      -8.079083416862e-15 
   89       3.349230253478e-10       8.396510206860e-14      -2.269373833715e-12       3.152476132749e-16       1.359306001107e-11       1.868691595798e-12      -8.055376245884e-15 
   90       3.390388088068e-10       8.610804525845e-14      -2.357060290939e-12       3.224071251925e-16       1.321100127196e-11       1.825453208586e-12      -8.030905034410e-15 
   91       3.431870759168e-10       8.825057497796e-14      -2.445508268600e-12       3.296502401200e-16       1.284291456283e-11       1.783650120228e-12      -8.002359992314e-15 
   92       3.473666653222e-10       9.039072591048e-14      -2.534651337179e-12       3.369773137068e-16       1.248743481205e-11       1.743128151590e-12      -7.966125480757e-15 
   93       3.515764599979e-10       9.252651960349e-14      -2.624422339216e-12       3.443887314918e-16       1.214327677052e-11       1.703743997127e-12      -7.919134788702e-15 
   94       3.558165166382e-10       9.465606981210e-14      -2.714757237059e-12       3.518849423425e-16       1.181027852874e-11       1.665488955102e-12      -7.861600134192e-15 
   95       3.600870840768e-10       9.677749310359e-14      -2.805591852377e-12       3.594664309273e-16       1.148850023057e-11       1.628382141017e-12      -7.794679321755e-15 
   96       3.643882511678e-10       9.888887753038e-14      -2.896860725243e-12       3.671337083679e-16       1.117790270029e-11       1.592432437946e-12      -7.719652218433e-15 
   97       3.687199393729e-10       1.009882831023e-13      -2.988497133949e-12       3.748873128466e-16       1.087834364118e-11       1.557638088496e-12      -7.637924035259e-15 
   98       3.730818953475e-10       1.030737422592e-13      -3.080433114811e-12       3.827278102131e-16       1.058957383407e-11       1.523986286769e-12      -7.551028608726e-15 
   99       3.774736835280e-10       1.051432603429e-13      -3.172599481977e-12       3.906557945922e-16       1.031123333593e-11       1.491452770322e-12      -7.460631682262e-15 
  100       3.818946787181e-10       1.071948160700e-13      -3.264925847238e-12       3.986718889912e-16       1.004284767847e-11       1.460001412136e-12      -7.368534187702e-15 
  101       3.863440586757e-10       1.092263620039e-13      -3.357340639835e-12       4.067767459065e-16       9.783824066633e-12       1.429583812572e-12      -7.276675526763e-15 
  102       3.908207966997e-10       1.112358250272e-13      -3.449771126265e-12       4.149710479319e-16       9.533447577259e-12       1.400138891338e-12      -7.187136852513e-15 
  103       3.953236542166e-10       1.132211068145e-13      -3.542143430096e-12       4.232555083648e-16       9.290877357597e-12       1.371592479448e-12      -7.102144350849e-15 
  104       3.998514358388e-10       1.151801354163e-13      -3.634383106723e-12       4.316308484253e-16       9.055336868594e-12       1.343874241094e-12      -7.023584972425e-15 
  105       4.044038097475e-10       1.171110269328e-13      -3.726416913411e-12       4.400977240981e-16       8.826722070572e-12       1.316971921455e-12      -6.951472057894e-15 
  106       4.089805848271e-10       1.190119466625e-13      -3.818171316404e-12       4.486567904936e-16       8.605068690089e-12       1.290883700393e-12      -6.885277593694e-15 
  107       4.135814536153e-10       1.208810609615e-13      -3.909571982915e-12       4.573087247011e-16       8.390363862811e-12       1.265601301959e-12      -6.824399201356e-15 
