# dimensionless total lensed [l(l+1)/2pi] C_l's
# for l=2 to 2500, i.e. number of multipoles equal to 2499
#
# -> if you prefer output in CAMB/HealPix/LensPix units/order, set 'format' to 'camb' in input file
# -> if you don't want to see such a header, set 'headers' to 'no' in input file
# -> for CMB lensing (phi), these are C_l^phi-phi for the lensing potential.
#    Remember the conversion factors:
#    C_l^dd (deflection) = l(l+1) C_l^phi-phi
#    C_l^gg (shear/convergence) = 1/4 (l(l+1))^2 C_l^phi-phi
#
# 1:l     2:TT                     3:EE                     4:TE                     5:BB                     6:phiphi                 7:TPhi                   8:Ephi               
    2       1.513649768361e-10       4.794184810093e-15       3.799586015854e-13       2.253216039915e-19       8.308969920380e-09       5.059136535073e-10      -2.012667291825e-12 
    3       1.417623678179e-10       6.054650911615e-15       4.281367372863e-13       4.507431277641e-19       5.129827580733e-09       3.573080195951e-10      -1.512224499781e-12 
    4       1.331034149481e-10       5.148996390618e-15       3.998185559123e-13       7.514584925654e-19       3.573428812576e-09       2.695810636797e-10      -9.767961405289e-13 
    5       1.266667123943e-10       3.373347853733e-15       3.391767893789e-13       1.127595149281e-18       2.668756012312e-09       2.123142607820e-10      -5.310306576470e-13 
    6       1.222168235784e-10       1.856569102940e-15       2.715883141019e-13       1.579307586746e-18       2.084696881866e-09       1.723358771124e-10      -2.072594547146e-13 
    7       1.192668727831e-10       9.992044310226e-16       2.117230935049e-13       2.106774338041e-18       1.680646345455e-09       1.430927548484e-10      -5.088549102286e-15 
    8       1.174580709010e-10       6.511233519427e-16       1.659072694225e-13       2.710194600313e-18       1.387208500797e-09       1.209779422015e-10       9.391004754374e-14 
    9       1.164918553920e-10       5.242270591960e-16       1.354177498691e-13       3.389784570985e-18       1.166715808766e-09       1.038406903385e-10       1.170794168627e-13 
   10       1.161207682997e-10       4.430184685669e-16       1.186530203897e-13       4.145773610260e-18       9.966409319446e-10       9.028090290832e-11       9.395936766184e-14 
   11       1.162484695158e-10       3.698597607650e-16       1.125813351185e-13       4.978400343023e-18       8.432511331738e-10       7.968634941658e-11       5.145259898896e-14 
   12       1.167290929336e-10       3.230822890820e-16       1.137767037539e-13       5.887908812354e-18       7.367217682286e-10       7.043672500693e-11       8.506047547432e-15 
   13       1.174929026451e-10       3.112431574784e-16       1.192653250779e-13       6.874544792104e-18       6.492708519543e-10       6.289411627632e-11      -2.257344887647e-14 
   14       1.184669845552e-10       3.231168619306e-16       1.268635944570e-13       7.938552357440e-18       5.765113246651e-10       5.630774187857e-11      -3.807939714211e-14 
   15       1.196489607658e-10       3.466863784130e-16       1.351531013198e-13       9.080170800397e-18       5.152670829370e-10       5.077114303433e-11      -3.911742326682e-14 
   16       1.209792301856e-10       3.813562514207e-16       1.435298499883e-13       1.029963196266e-17       4.631960636797e-10       4.602141189794e-11      -3.059013831435e-14 
   17       1.224474961798e-10       4.337556211757e-16       1.518954979662e-13       1.159715804072e-17       4.185289744175e-10       4.189340102438e-11      -1.835716515761e-14 
   18       1.240057314162e-10       5.088213654055e-16       1.604905692207e-13       1.297295969130e-17       3.797624836643e-10       3.827101702329e-11      -7.624563490117e-15 
   19       1.256654548784e-10       6.063071578768e-16       1.695557902757e-13       1.442723591257e-17       3.462782060786e-10       3.511458970347e-11      -8.584072246884e-16 
   20       1.274054475663e-10       7.236666522202e-16       1.792712615554e-13       1.596017109728e-17       3.167885110663e-10       3.233032857392e-11       6.145708720876e-16 
   21       1.292319498899e-10       8.602957610751e-16       1.895905000398e-13       1.757193810009e-17       2.908302023713e-10       2.986681190367e-11      -2.207649269898e-15 
   22       1.311265440193e-10       1.015846013218e-15       2.002916973996e-13       1.926269498791e-17       2.677814148504e-10       2.764749032828e-11      -7.115579097652e-15 
   23       1.330872501508e-10       1.190084481324e-15       2.109354177685e-13       2.103258963520e-17       2.473252905696e-10       2.564971093097e-11      -1.224093634284e-14 
   24       1.350969972352e-10       1.382733873615e-15       2.209786190493e-13       2.288175642058e-17       2.289893036404e-10       2.384583886024e-11      -1.575958912987e-14 
   25       1.371666558067e-10       1.594338914108e-15       2.301504453271e-13       2.481032259825e-17       2.125577290941e-10       2.222837442951e-11      -1.704055749638e-14 
   26       1.392968226783e-10       1.825909647214e-15       2.382753183590e-13       2.681840431285e-17       1.977330163360e-10       2.077766467718e-11      -1.603172159329e-14 
   27       1.414733201575e-10       2.079503178256e-15       2.452856883415e-13       2.890611264384e-17       1.843372134354e-10       1.946536197543e-11      -1.354549970269e-14 
   28       1.436693258599e-10       2.357491418596e-15       2.511761593186e-13       3.107355089313e-17       1.721392886191e-10       1.825345963626e-11      -1.074003729172e-14 
   29       1.458950049041e-10       2.661320368743e-15       2.560121820670e-13       3.332082406554e-17       1.610768784973e-10       1.714079159249e-11      -8.251114850720e-15 
   30       1.481613610775e-10       2.992132935431e-15       2.599170264070e-13       3.564803119202e-17       1.510311452567e-10       1.612915130766e-11      -6.645393140936e-15 
   31       1.504683828234e-10       3.351001797010e-15       2.630157790147e-13       3.805526528980e-17       1.417971258145e-10       1.521075987579e-11      -6.413636451167e-15 
   32       1.528184601887e-10       3.738845744092e-15       2.652528405279e-13       4.054262477822e-17       1.333270569384e-10       1.437520606128e-11      -7.275270660466e-15 
   33       1.552051468837e-10       4.156467477001e-15       2.665048503193e-13       4.311020633338e-17       1.255609601845e-10       1.360314042496e-11      -8.596749502172e-15 
   34       1.576151720772e-10       4.604622936693e-15       2.666306445083e-13       4.575810341714e-17       1.183900720892e-10       1.287158300177e-11      -9.698453448999e-15 
   35       1.600529811635e-10       5.084218817860e-15       2.654879386521e-13       4.848641114163e-17       1.117776302083e-10       1.218244025586e-11      -1.034724946641e-14 
   36       1.625230156342e-10       5.596175998310e-15       2.629197701173e-13       5.129522340894e-17       1.056705335404e-10       1.154313717719e-11      -1.042963669641e-14 
   37       1.650247249009e-10       6.141360633033e-15       2.587825434544e-13       5.418463071706e-17       9.998924389450e-11       1.095794931952e-11      -9.879881372260e-15 
   38       1.675605688315e-10       6.720537710084e-15       2.530624072361e-13       5.715471629993e-17       9.471903552250e-11       1.042499024368e-11      -8.879795490618e-15 
   39       1.701294292202e-10       7.334395204297e-15       2.457980211529e-13       6.020555896425e-17       8.984314317196e-11       9.937672550395e-12      -7.729805287455e-15 
   40       1.727236294439e-10       7.983550773052e-15       2.370512003594e-13       6.333723427019e-17       8.531500666878e-11       9.485062650738e-12      -6.801305606495e-15 
   41       1.753332682729e-10       8.668594663558e-15       2.268839557058e-13       6.654981077380e-17       8.107447841843e-11       9.055178895843e-12      -6.434283690069e-15 
   42       1.779624920052e-10       9.390246000143e-15       2.152772542061e-13       6.984333701043e-17       7.710903784907e-11       8.647024919645e-12      -6.579220827447e-15 
   43       1.806174174327e-10       1.014923983534e-14       2.021881727036e-13       7.321785046507e-17       7.340813076957e-11       8.261880034022e-12      -7.046240898426e-15 
   44       1.833012943729e-10       1.094628295622e-14       1.875717098706e-13       7.667338092789e-17       6.994480156688e-11       7.899886779362e-12      -7.599185431072e-15 
   45       1.860152036229e-10       1.178201574267e-14       1.713813157897e-13       8.020994595389e-17       6.668531136706e-11       7.560327661332e-12      -8.011642659841e-15 
   46       1.887611356527e-10       1.265688705859e-14       1.535713203890e-13       8.382753598985e-17       6.362449756364e-11       7.242793380709e-12      -8.261659749834e-15 
   47       1.915393010326e-10       1.357123985470e-14       1.340947611634e-13       8.752612453634e-17       6.075876490592e-11       6.946191075688e-12      -8.390441295727e-15 
   48       1.943469525038e-10       1.452534155178e-14       1.129024165679e-13       9.130567174905e-17       5.807542098292e-11       6.668318614768e-12      -8.449104236273e-15 
   49       1.971781308309e-10       1.551938067872e-14       8.994257621106e-14       9.516612403071e-17       5.555199994915e-11       6.405784809412e-12      -8.499245022771e-15 
   50       2.000264248556e-10       1.655349474568e-14       6.516715777317e-14       9.910741362275e-17       5.316302123661e-11       6.154994857444e-12      -8.599499273060e-15 
   51       2.028947244971e-10       1.762787058247e-14       3.855254832777e-14       1.031294581963e-16       5.090399743482e-11       5.915607121744e-12      -8.759603991948e-15 
   52       2.057876757838e-10       1.874266542452e-14       1.008402292628e-14       1.072321604448e-16       4.877277409697e-11       5.687876737755e-12      -8.974846445264e-15 
   53       2.087087883932e-10       1.989797621105e-14      -2.025004046017e-14       1.114154076763e-16       4.676234566594e-11       5.471643435960e-12      -9.238892023344e-15 
   54       2.116603233492e-10       2.109383769297e-14      -5.245809207802e-14       1.156790714052e-16       4.486052908180e-11       5.266301883050e-12      -9.543692232350e-15 
   55       2.146435969657e-10       2.233023508315e-14      -8.654594612199e-14       1.200230166404e-16       4.305367529235e-11       5.071062022945e-12      -9.879043454053e-15 
   56       2.176602383718e-10       2.360715002172e-14      -1.225187015339e-13       1.244471333857e-16       4.133963123256e-11       4.885873781088e-12      -1.023134564792e-14 
   57       2.207110476758e-10       2.492452271544e-14      -1.603791777533e-13       1.289513122505e-16       3.971742617698e-11       4.710680126785e-12      -1.058437412354e-14 
   58       2.237955130952e-10       2.628223709915e-14      -2.001273076094e-13       1.335354354088e-16       3.818335056459e-11       4.545129239182e-12      -1.091949843872e-14 
   59       2.269117148712e-10       2.768011951028e-14      -2.417600920144e-13       1.381993765696e-16       3.673078692719e-11       4.388556147133e-12      -1.121557678436e-14 
   60       2.300562291833e-10       2.911793736338e-14      -2.852715546563e-13       1.429430009462e-16       3.535004081778e-11       4.239964369068e-12      -1.144885036936e-14 
   61       2.332255860592e-10       3.059534716713e-14      -3.306535506006e-13       1.477661824877e-16       3.403102916207e-11       4.098298436543e-12      -1.159852282353e-14 
   62       2.364212428795e-10       3.211172793936e-14      -3.778985066858e-13       1.526688601619e-16       3.277243294444e-11       3.963374482518e-12      -1.166520078884e-14 
   63       2.396455618043e-10       3.366630787795e-14      -4.269972186403e-13       1.576509943092e-16       3.157430826956e-11       3.835126903837e-12      -1.165642393828e-14 
   64       2.429003084368e-10       3.525820884408e-14      -4.779380335999e-13       1.627125510031e-16       3.043533337036e-11       3.713326959793e-12      -1.158141849308e-14 
   65       2.461866050442e-10       3.688644342937e-14      -5.307068318942e-13       1.678535025676e-16       2.935273020019e-11       3.597573641509e-12      -1.145117198891e-14 
   66       2.495048837798e-10       3.854991202313e-14      -5.852870088338e-13       1.730738280942e-16       2.832218602511e-11       3.487284541328e-12      -1.127850804207e-14 
   67       2.528548399045e-10       4.024739987946e-14      -6.416594564970e-13       1.783735139600e-16       2.733777501614e-11       3.381686722198e-12      -1.107816111574e-14 
   68       2.562359742504e-10       4.197768583798e-14      -6.998025426750e-13       1.837525620475e-16       2.639353845080e-11       3.280019623747e-12      -1.086423153607e-14 
   69       2.596494528115e-10       4.373990062275e-14      -7.596920834657e-13       1.892110151848e-16       2.548877239436e-11       3.182211932731e-12      -1.064178459626e-14 
   70       2.630965416518e-10       4.553323620906e-14      -8.213013323825e-13       1.947489378134e-16       2.462367550977e-11       3.088326091891e-12      -1.041367570190e-14 
   71       2.665780198634e-10       4.735684051782e-14      -8.846009647462e-13       2.003664094429e-16       2.379774990449e-11       2.998354757182e-12      -1.018302713313e-14 
   72       2.700941478577e-10       4.920981733829e-14      -9.495590593991e-13       2.060635253657e-16       2.300976514241e-11       2.912217090088e-12      -9.953235809605e-15 
   73       2.736446356582e-10       5.109122625092e-14      -1.016141080419e-12       2.118403973711e-16       2.225772225578e-11       2.829755049945e-12      -9.727981055376e-15 
   74       2.772286111916e-10       5.300008255003e-14      -1.084309858835e-12       2.176971544596e-16       2.153881775711e-11       2.750729686258e-12      -9.511232363867e-15 
   75       2.808445885798e-10       5.493535716669e-14      -1.154025574338e-12       2.236339435576e-16       2.084940765111e-11       2.674817431021e-12      -9.307257162789e-15 
   76       2.844911238952e-10       5.689593117599e-14      -1.225247282964e-12       2.296509205988e-16       2.018591051469e-11       2.601694341913e-12      -9.119857732818e-15 
   77       2.881689905717e-10       5.888044991252e-14      -1.297937862176e-12       2.357482203114e-16       1.954778641164e-11       2.531314763219e-12      -8.949904150332e-15 
   78       2.918793449256e-10       6.088744198829e-14      -1.372059938506e-12       2.419259821934e-16       1.893503833813e-11       2.463676980052e-12      -8.797363482056e-15 
   79       2.956230565592e-10       6.291536135588e-14      -1.447574434789e-12       2.481843601662e-16       1.834730488474e-11       2.398737902117e-12      -8.662022808915e-15 
   80       2.994006907493e-10       6.496258629993e-14      -1.524440583578e-12       2.545235230905e-16       1.778384350469e-11       2.336411159536e-12      -8.543481184134e-15 
   81       3.032124908362e-10       6.702741842865e-14      -1.602615940559e-12       2.609436552838e-16       1.724351378213e-11       2.276565198666e-12      -8.441141591350e-15 
   82       3.070583606123e-10       6.910808166532e-14      -1.682056397966e-12       2.674449570373e-16       1.672476070042e-11       2.219021377929e-12      -8.354202902715e-15 
   83       3.109378467110e-10       7.120272123974e-14      -1.762716197997e-12       2.740276451322e-16       1.622559791037e-11       2.163552063628e-12      -8.281651837003e-15 
   84       3.148504341619e-10       7.330946367230e-14      -1.844547337002e-12       2.806919502460e-16       1.574408951467e-11       2.109935628609e-12      -8.222223491958e-15 
   85       3.187965279278e-10       7.542661036058e-14      -1.927497635155e-12       2.874381075432e-16       1.527992383981e-11       2.058136095217e-12      -8.174293039258e-15 
   86       3.227766025534e-10       7.755247438550e-14      -2.011512369886e-12       2.942663654649e-16       1.483307109847e-11       2.008149920587e-12      -8.135951246979e-15 
   87       3.267908913002e-10       7.968532238845e-14      -2.096534859781e-12       3.011769891588e-16       1.440329984000e-11       1.959950807824e-12      -8.105025865235e-15 
   88       3.308393737987e-10       8.182337458792e-14      -2.182506467764e-12       3.081702609445e-16       1.399016859712e-11       1.913488758181e-12      -8.079073056124e-15 
   89       3.349217637009e-10       8.396480479603e-14      -2.269366604270e-12       3.152464807775e-16       1.359301753262e-11       1.868689123224e-12      -8.055368823668e-15 
   90       3.390374963319e-10       8.610774043516e-14      -2.357052730420e-12       3.224059667138e-16       1.321096008607e-11       1.825451657014e-12      -8.030900443760e-15 
   91       3.431857163425e-10       8.825026255449e-14      -2.445500361203e-12       3.296490553748e-16       1.284287462047e-11       1.783649568272e-12      -8.002357894098e-15 
   92       3.473652653610e-10       9.039040584660e-14      -2.534643068645e-12       3.369761024118e-16       1.248739606898e-11       1.743128572558e-12      -7.966125284135e-15 
   93       3.515750289319e-10       9.252619187363e-14      -2.624413697478e-12       3.443874933638e-16       1.214323918703e-11       1.703745269875e-12      -7.919135688456e-15 
   94       3.558150638401e-10       9.465573442626e-14      -2.714748214371e-12       3.518836770918e-16       1.181024206572e-11       1.665490938803e-12      -7.861601329558e-15 
   95       3.600856182954e-10       9.677715011512e-14      -2.805582446185e-12       3.594651382554e-16       1.148846484877e-11       1.628384695207e-12      -7.794680080213e-15 
   96       3.643867804363e-10       9.888852703918e-14      -2.896850938629e-12       3.671323879664e-16       1.117786836064e-11       1.592435423219e-12      -7.719651884811e-15 
   97       3.687184709144e-10       1.009879252582e-13      -2.988486976080e-12       3.748859643966e-16       1.087831030515e-11       1.557641367226e-12      -7.637922041099e-15 
   98       3.730804354780e-10       1.030733772652e-13      -3.080422601396e-12       3.827264333844e-16       1.058954146403e-11       1.523989723851e-12      -7.551024481921e-15 
   99       3.774722375562e-10       1.051428884589e-13      -3.172588635745e-12       3.906543890424e-16       1.031120189556e-11       1.491456233945e-12      -7.460625056960e-15 
  100       3.818932508430e-10       1.071944376161e-13      -3.264914698417e-12       3.986704543648e-16       1.004281713307e-11       1.460004774574e-12      -7.368524814472e-15 
  101       3.863426518813e-10       1.092259773640e-13      -3.357329226651e-12       4.067752818342e-16       9.783794383639e-12       1.429586951003e-12      -7.276663283032e-15 
  102       3.908194126466e-10       1.112354346531e-13      -3.449759495449e-12       4.149695540292e-16       9.533418726567e-12       1.400141688685e-12      -7.187121753270e-15 
  103       3.953222931312e-10       1.132207112290e-13      -3.542131637397e-12       4.232539842317e-16       9.290849312037e-12       1.371594825246e-12      -7.102126559611e-15 
  104       3.998500966433e-10       1.151797351969e-13      -3.634371214900e-12       4.316292936478e-16       9.055309603700e-12       1.343876033154e-12      -7.023564783022e-15 
  105       4.044024909527e-10       1.171106226276e-13      -3.726404982209e-12       4.400961382585e-16       8.826695562274e-12       1.316973070006e-12      -6.951449783629e-15 
  106       4.089792847608e-10       1.190115387643e-13      -3.818159399476e-12       4.486551731738e-16       8.605042914231e-12       1.290884130123e-12      -6.885253537051e-15 
  107       4.135801704163e-10       1.208806499023e-13      -3.909560127175e-12       4.573070754825e-16       8.390338795317e-12       1.265600953351e-12      -6.824373651993e-15 
