# dimensionless total [l(l+1)/2pi] C_l's
# for l=2 to 3000, i.e. number of multipoles equal to 2999
#
# -> if you prefer output in CAMB/HealPix/LensPix units/order, set 'format' to 'camb' in input file
# -> if you don't want to see such a header, set 'headers' to 'no' in input file
# -> for CMB lensing (phi), these are C_l^phi-phi for the lensing potential.
#    Remember the conversion factors:
#    C_l^dd (deflection) = l(l+1) C_l^phi-phi
#    C_l^gg (shear/convergence) = 1/4 (l(l+1))^2 C_l^phi-phi
#
# 1:l     2:TT                     3:EE                     4:TE                     5:BB                     6:phiphi                 7:TPhi                   8:Ephi               
    2       1.513665498891e-10       4.793987854967e-15       3.799598048805e-13       0.000000000000e+00       8.309262150646e-09       5.059292299246e-10      -2.012691592712e-12 
    3       1.417624688514e-10       6.054243626644e-15       4.281351381046e-13       0.000000000000e+00       5.130029560196e-09       3.573200180624e-10      -1.512245995038e-12 
    4       1.331028650243e-10       5.148302784862e-15       3.998195924102e-13       0.000000000000e+00       3.573580356249e-09       2.695904568008e-10      -9.768117833992e-13 
    5       1.266657263020e-10       3.372268706892e-15       3.391806880822e-13       0.000000000000e+00       2.668875593625e-09       2.123219304731e-10      -5.310390578870e-13 
    6       1.222151938222e-10       1.855022364817e-15       2.715929937303e-13       0.000000000000e+00       2.084794866048e-09       1.723423971314e-10      -2.072619980478e-13 
    7       1.192641379294e-10       9.971209504659e-16       2.117279076228e-13       0.000000000000e+00       1.680728309173e-09       1.430984426474e-10      -5.087623649666e-15 
    8       1.174540755163e-10       6.484325098420e-16       1.659121787688e-13       0.000000000000e+00       1.387278264665e-09       1.209829907212e-10       9.391230578410e-14 
    9       1.164865157325e-10       5.208545851914e-16       1.354227923585e-13       0.000000000000e+00       1.166776574287e-09       1.038452717654e-10       1.170815702259e-13 
   10       1.161138471047e-10       4.388884403554e-16       1.186587193152e-13       0.000000000000e+00       9.966946177527e-10       9.028512439356e-11       9.396069752026e-14 
   11       1.162399052168e-10       3.648961513392e-16       1.125880798893e-13       0.000000000000e+00       8.432992051764e-10       7.969030210720e-11       5.145297061956e-14 
   12       1.167187692779e-10       3.172096010429e-16       1.137848177827e-13       0.000000000000e+00       7.367649088790e-10       7.044030279858e-11       8.505630050340e-15 
   13       1.174807141427e-10       3.043857936574e-16       1.192751270269e-13       0.000000000000e+00       6.493099205567e-10       6.289734544975e-11      -2.257430276143e-14 
   14       1.184528804651e-10       3.151987460364e-16       1.268754078804e-13       0.000000000000e+00       5.765467690521e-10       5.631075657225e-11      -3.808038362713e-14 
   15       1.196328728791e-10       3.376306929562e-16       1.351672620122e-13       0.000000000000e+00       5.152994430403e-10       5.077395598249e-11      -3.911830631954e-14 
   16       1.209609553886e-10       3.710860343245e-16       1.435465167218e-13       0.000000000000e+00       4.632257593800e-10       4.602395372035e-11      -3.059083655416e-14 
   17       1.224270152387e-10       4.221945116012e-16       1.519150185706e-13       0.000000000000e+00       4.185562807462e-10       4.189568014962e-11      -1.835769344024e-14 
   18       1.239828880869e-10       4.958922203274e-16       1.605132211325e-13       0.000000000000e+00       3.797876554879e-10       3.827314324955e-11      -7.625025411503e-15 
   19       1.256401191473e-10       5.919330600400e-16       1.695819339530e-13       0.000000000000e+00       3.463014914556e-10       3.511660415409e-11      -8.588820798900e-16 
   20       1.273776022263e-10       7.077713416929e-16       1.793014151953e-13       0.000000000000e+00       3.168100992132e-10       3.233215319881e-11       6.140728386791e-16 
   21       1.292015314232e-10       8.428026285150e-16       1.896251228250e-13       0.000000000000e+00       2.908502570888e-10       2.986842637818e-11      -2.208175851984e-15 
   22       1.310933959929e-10       9.966777956515e-16       2.003311165954e-13       0.000000000000e+00       2.678000636583e-10       2.764898201907e-11      -7.116152305238e-15 
   23       1.330512447473e-10       1.169164001894e-15       2.109799638454e-13       0.000000000000e+00       2.473426560047e-10       2.565114044654e-11      -1.224156031066e-14 
   24       1.350580727695e-10       1.359984378485e-15       2.210286787305e-13       0.000000000000e+00       2.290054991429e-10       2.384719458885e-11      -1.576024056462e-14 
   25       1.371247562818e-10       1.569684243689e-15       2.302064754565e-13       0.000000000000e+00       2.125728623659e-10       2.222962809126e-11      -1.704118086304e-14 
   26       1.392518765530e-10       1.799274247109e-15       2.383378391929e-13       0.000000000000e+00       1.977471804200e-10       2.077879224525e-11      -1.603223961981e-14 
   27       1.414252438706e-10       2.050811498903e-15       2.453551904354e-13       0.000000000000e+00       1.843504916147e-10       1.946636089855e-11      -1.354588764874e-14 
   28       1.436180264474e-10       2.326667822697e-15       2.512530849390e-13       0.000000000000e+00       1.721517505442e-10       1.825435468719e-11      -1.074034421562e-14 
   29       1.458403968165e-10       2.628289787074e-15       2.560970219952e-13       0.000000000000e+00       1.610885921533e-10       1.714162085221e-11      -8.251404442586e-15 
   30       1.481033734929e-10       2.956821177011e-15       2.600103621065e-13       0.000000000000e+00       1.510421741062e-10       1.612996231963e-11      -6.645723322035e-15 
   31       1.504069593076e-10       3.313335538719e-15       2.631182687478e-13       0.000000000000e+00       1.418075230521e-10       1.521160145230e-11      -6.414051611102e-15 
   32       1.527535450156e-10       3.698751885338e-15       2.653650864253e-13       0.000000000000e+00       1.333368724020e-10       1.437608998905e-11      -7.275782191403e-15 
   33       1.551366795667e-10       4.113872882195e-15       2.666273372365e-13       0.000000000000e+00       1.255702381731e-10       1.360402059306e-11      -8.597322411114e-15 
   34       1.575430864535e-10       4.559454528731e-15       2.667637448680e-13       0.000000000000e+00       1.183988481536e-10       1.287236236687e-11      -9.699011736265e-15 
   35       1.599772089150e-10       5.036404354960e-15       2.656320479333e-13       0.000000000000e+00       1.117859378357e-10       1.218305104764e-11      -1.034773897781e-14 
   36       1.624434867993e-10       5.545644414715e-15       2.630753581127e-13       0.000000000000e+00       1.056784037502e-10       1.154357439882e-11      -1.043005132478e-14 
   37       1.649413684913e-10       6.088042103158e-15       2.589501432261e-13       0.000000000000e+00       9.999670353633e-11       1.095826962497e-11      -9.880262444555e-15 
   38       1.674733179610e-10       6.664363347982e-15       2.532425037003e-13       0.000000000000e+00       9.472611114340e-11       1.042525455146e-11      -8.880188223643e-15 
   39       1.700382232651e-10       7.275297013668e-15       2.459910064121e-13       0.000000000000e+00       8.984986077684e-11       9.937926582029e-12      -7.730244220389e-15 
   40       1.726284150863e-10       7.921461695655e-15       2.372573544556e-13       0.000000000000e+00       8.532138976716e-11       9.485332102363e-12      -6.801811228282e-15 
   41       1.752339990995e-10       8.603448442392e-15       2.271034539771e-13       0.000000000000e+00       8.108054707512e-11       9.055468716200e-12      -6.434861455000e-15 
   42       1.778591230431e-10       9.321976413206e-15       2.155102675756e-13       0.000000000000e+00       7.711481155920e-11       8.647333322376e-12      -6.579868832539e-15 
   43       1.805099032170e-10       1.007778035476e-14       2.024349033941e-13       0.000000000000e+00       7.341362846068e-11       8.262202006820e-12      -7.046951325112e-15 
   44       1.831895883528e-10       1.087156656338e-14       1.878324027695e-13       0.000000000000e+00       6.995004043844e-11       7.900213534894e-12      -7.599943555610e-15 
   45       1.858992587337e-10       1.170397509054e-14       1.716562462658e-13       0.000000000000e+00       6.669030637955e-11       7.560647329002e-12      -8.012427924706e-15 
   46       1.886409088851e-10       1.257545582809e-14       1.538607012401e-13       0.000000000000e+00       6.362926332801e-11       7.243095933127e-12      -8.262453876969e-15 
   47       1.914147551416e-10       1.348635325322e-14       1.343987075805e-13       0.000000000000e+00       6.076331573141e-11       6.946470236042e-12      -8.391231373532e-15 
   48       1.942180566553e-10       1.443693649162e-14       1.132209327187e-13       0.000000000000e+00       5.807977019490e-11       6.668572646029e-12      -8.449883942927e-15 
   49       1.970448612822e-10       1.542739596401e-14       9.027554120071e-14       0.000000000000e+00       5.555615915644e-11       6.406017347083e-12      -8.500015918586e-15 
   50       1.998887641977e-10       1.645787126551e-14       6.551431878194e-14       0.000000000000e+00       5.316700011534e-11       6.155214321711e-12      -8.600269973888e-15 
   51       2.027526560368e-10       1.752855150509e-14       3.891353901985e-14       0.000000000000e+00       5.090780534503e-11       5.915821312238e-12      -8.760382147537e-15 
   52       2.056411815268e-10       1.863959640544e-14       1.045836237032e-14       0.000000000000e+00       4.877642027652e-11       5.688091013337e-12      -8.975636078978e-15 
   53       2.085578483534e-10       1.979110561163e-14      -1.986295632006e-14       0.000000000000e+00       4.676583887724e-11       5.471860219575e-12      -9.239692856039e-15 
   54       2.115049148226e-10       2.098311680741e-14      -5.205899920710e-14       0.000000000000e+00       4.486387723470e-11       5.266520141223e-12      -9.544498972312e-15 
   55       2.144836945582e-10       2.221561816657e-14      -8.613571263929e-14       0.000000000000e+00       4.305688531641e-11       5.071277505987e-12      -9.879846224826e-15 
   56       2.174958165859e-10       2.348859364471e-14      -1.220982992650e-13       0.000000000000e+00       4.134270982499e-11       4.886081824841e-12      -1.023213423855e-14 
   57       2.205420815136e-10       2.480198563946e-14      -1.599496757951e-13       0.000000000000e+00       3.972037985055e-11       4.710876484735e-12      -1.058513930652e-14 
   58       2.236219779256e-10       2.615568034493e-14      -1.996898739817e-13       0.000000000000e+00       3.818618542830e-11       4.545310189403e-12      -1.092023221082e-14 
   59       2.267335862940e-10       2.754950642649e-14      -2.413159952242e-13       0.000000000000e+00       3.673350845371e-11       4.388718604488e-12      -1.121627261915e-14 
   60       2.298734828895e-10       2.898323369562e-14      -2.848221651755e-13       0.000000000000e+00       3.535265359756e-11       4.240106002668e-12      -1.144950348146e-14 
   61       2.330381987926e-10       3.045652110695e-14      -3.302003472002e-13       0.000000000000e+00       3.403353690733e-11       4.098417716507e-12      -1.159913019753e-14 
   62       2.362291970021e-10       3.196875010747e-14      -3.774430988120e-13       0.000000000000e+00       3.277483933817e-11       3.963470484163e-12      -1.166576041390e-14 
   63       2.394488470645e-10       3.351915135896e-14      -4.265413562113e-13       0.000000000000e+00       3.157661713657e-11       3.835199309073e-12      -1.165693467877e-14 
   64       2.426989227334e-10       3.510684923989e-14      -4.774836122457e-13       0.000000000000e+00       3.043754859703e-11       3.713376132478e-12      -1.158188019433e-14 
   65       2.459805552227e-10       3.673085891225e-14      -5.302558982661e-13       0.000000000000e+00       2.935485564937e-11       3.597600705657e-12      -1.145158558683e-14 
   66       2.492941864598e-10       3.839008338843e-14      -5.848417659839e-13       0.000000000000e+00       2.832422544613e-11       3.487291462163e-12      -1.127887567672e-14 
   67       2.526395223385e-10       4.008331059806e-14      -6.412222693276e-13       0.000000000000e+00       2.733973194983e-11       3.381676390063e-12      -1.107848624871e-14 
   68       2.560160735706e-10       4.180932191160e-14      -6.993759386745e-13       0.000000000000e+00       2.639541621022e-11       3.279995757413e-12      -1.086451883280e-14 
   69       2.594250099914e-10       4.356724980245e-14      -7.592787380389e-13       0.000000000000e+00       2.549057430121e-11       3.182178392056e-12      -1.064203903914e-14 
   70       2.628675997339e-10       4.535628772034e-14      -8.209040665759e-13       0.000000000000e+00       2.462540491829e-11       3.088286666019e-12      -1.041390232298e-14 
   71       2.663446237245e-10       4.717558496580e-14      -8.842227474296e-13       0.000000000000e+00       2.379941014663e-11       2.998313123791e-12      -1.018323096981e-14 
   72       2.698563439643e-10       4.902424660755e-14      -9.492030093944e-13       0.000000000000e+00       2.301135947010e-11       2.912176772802e-12      -9.953421858127e-15 
   73       2.734024718105e-10       5.090133339990e-14      -1.015810468577e-12       0.000000000000e+00       2.225925378039e-11       2.829719373899e-12      -9.728154222082e-15 
   74       2.769821362575e-10       5.280586170019e-14      -1.084008110058e-12       0.000000000000e+00       2.154028938605e-11       2.750701731827e-12      -9.511397414212e-15 
   75       2.805938522179e-10       5.473680338618e-14      -1.153756269554e-12       0.000000000000e+00       2.085082202152e-11       2.674799985704e-12      -9.307418668139e-15 
   76       2.842361768168e-10       5.669304040080e-14      -1.225014163409e-12       0.000000000000e+00       2.018726999634e-11       2.601689822470e-12      -9.120019924086e-15 
   77       2.879098865545e-10       5.867321899937e-14      -1.297744841214e-12       0.000000000000e+00       1.954909333819e-11       2.531325046366e-12      -8.950070477430e-15 
   78       2.916161413778e-10       6.067586865012e-14      -1.371911107200e-12       0.000000000000e+00       1.893629504664e-11       2.463703304501e-12      -8.797536409587e-15 
   79       2.953558145622e-10       6.269944405238e-14      -1.447474065225e-12       0.000000000000e+00       1.834851368553e-11       2.398780794672e-12      -8.662203694014e-15 
   80       2.991294751021e-10       6.474232412356e-14      -1.524393132183e-12       0.000000000000e+00       1.778500664983e-11       2.336470358770e-12      -8.543670150218e-15 
   81       3.029373700998e-10       6.680281098617e-14      -1.602626051416e-12       0.000000000000e+00       1.724463343254e-11       2.276639576193e-12      -8.441337397777e-15 
   82       3.067794071548e-10       6.887912895482e-14      -1.682128906127e-12       0.000000000000e+00       1.672583889161e-11       2.219108857256e-12      -8.354402810345e-15 
   83       3.106551367539e-10       7.096942352325e-14      -1.762856132788e-12       0.000000000000e+00       1.622663651677e-11       2.163649536597e-12      -8.281851469675e-15 
   84       3.145640481238e-10       7.307182137690e-14      -1.844759916345e-12       0.000000000000e+00       1.574509025172e-11       2.110039131363e-12      -8.222417196508e-15 
   85       3.185065517193e-10       7.518462408062e-14      -1.927788231241e-12       0.000000000000e+00       1.528088838954e-11       2.058241817463e-12      -8.174475845111e-15 
   86       3.224831280808e-10       7.730614479226e-14      -2.011886498712e-12       0.000000000000e+00       1.483400112964e-11       2.008254515923e-12      -8.136119485071e-15 
   87       3.264940166908e-10       7.943465010451e-14      -2.096998179102e-12       0.000000000000e+00       1.440419699018e-11       1.960051456369e-12      -8.105177312169e-15 
   88       3.305392036322e-10       8.156836005753e-14      -2.183064774885e-12       0.000000000000e+00       1.399103445411e-11       1.913583231195e-12      -8.079207082677e-15 
   89       3.346184092463e-10       8.370544815154e-14      -2.270025833686e-12       0.000000000000e+00       1.359385361515e-11       1.868775849717e-12      -8.055486547658e-15 
   90       3.387310757901e-10       8.584404135955e-14      -2.357818951299e-12       0.000000000000e+00       1.321176782369e-11       1.825529792341e-12      -8.031004887260e-15 
   91       3.428763550940e-10       8.798222013996e-14      -2.446379774717e-12       0.000000000000e+00       1.284365533283e-11       1.783719064726e-12      -8.002454145015e-15 
   92       3.470530962202e-10       9.011801844923e-14      -2.535642005144e-12       0.000000000000e+00       1.248815094434e-11       1.743190251940e-12      -7.966220662137e-15 
   93       3.512601916028e-10       9.224945669368e-14      -2.625538608043e-12       0.000000000000e+00       1.214396928881e-11       1.703800699015e-12      -7.919239339693e-15 
   94       3.554977018288e-10       9.437464622661e-14      -2.716005644888e-12       0.000000000000e+00       1.181094842973e-11       1.665541675684e-12      -7.861722000014e-15 
   95       3.597658779922e-10       9.649170066411e-14      -2.806979025972e-12       0.000000000000e+00       1.148914850213e-11       1.628432073062e-12      -7.794825443273e-15 
   96       3.640648109619e-10       9.859870480474e-14      -2.898393374067e-12       0.000000000000e+00       1.117853031283e-11       1.592480524503e-12      -7.719828416481e-15 
   97       3.683944239604e-10       1.006937150944e-13      -2.990182044009e-12       0.000000000000e+00       1.087895153872e-11       1.557684996844e-12      -7.638134891689e-15 
   98       3.727544651428e-10       1.027747600912e-13      -3.082277142291e-12       0.000000000000e+00       1.059016292503e-11       1.524032381648e-12      -7.551277344176e-15 
   99       3.771445001749e-10       1.048398409299e-13      -3.174609546651e-12       0.000000000000e+00       1.031180448354e-11       1.491498086451e-12      -7.460920030646e-15 
  100       3.815639048121e-10       1.068869317873e-13      -3.267108925665e-12       0.000000000000e+00       1.004340169090e-11       1.460045626001e-12      -7.368862267426e-15 
  101       3.860118574777e-10       1.089139803465e-13      -3.359703758334e-12       0.000000000000e+00       9.784361686857e-12       1.429626213503e-12      -7.277041708651e-15 
  102       3.904873318419e-10       1.109189082619e-13      -3.452321353675e-12       0.000000000000e+00       9.533969472519e-12       1.400178351865e-12      -7.187537624468e-15 
  103       3.949890894003e-10       1.128996116243e-13      -3.544887870312e-12       0.000000000000e+00       9.291384108623e-12       1.371627424940e-12      -7.102574179225e-15 
  104       3.995159359939e-10       1.148540125287e-13      -3.637328900770e-12       0.000000000000e+00       9.055828976423e-12       1.343902746693e-12      -7.024036616914e-15 
  105       4.040675468197e-10       1.167802207129e-13      -3.729571272067e-12       0.000000000000e+00       8.827200019640e-12       1.316992212048e-12      -6.951938323760e-15 
  106       4.086437395503e-10       1.186763947224e-13      -3.821541526007e-12       0.000000000000e+00       8.605532962105e-12       1.290894300907e-12      -6.885751835620e-15 
  107       4.132442158779e-10       1.205406937704e-13      -3.913165401686e-12       0.000000000000e+00       8.390814933265e-12       1.265601065176e-12      -6.824875389554e-15 
