# dimensionless total [l(l+1)/2pi] C_l's
# for l=2 to 3000, i.e. number of multipoles equal to 2999
#
# -> if you prefer output in CAMB/HealPix/LensPix units/order, set 'format' to 'camb' in input file
# -> if you don't want to see such a header, set 'headers' to 'no' in input file
# -> for CMB lensing (phi), these are C_l^phi-phi for the lensing potential.
#    Remember the conversion factors:
#    C_l^dd (deflection) = l(l+1) C_l^phi-phi
#    C_l^gg (shear/convergence) = 1/4 (l(l+1))^2 C_l^phi-phi
#
# 1:l     2:TT                     3:EE                     4:TE                     5:BB                     6:phiphi                 7:TPhi                   8:Ephi               
    2       1.513637150736e-10       4.793934901185e-15       3.799566571241e-13       0.000000000000e+00       8.308927364166e-09       5.059110543370e-10      -2.012656969379e-12 
    3       1.417606724966e-10       6.054169117225e-15       4.281345598657e-13       0.000000000000e+00       5.129801394124e-09       3.573061876425e-10      -1.512216745237e-12 
    4       1.331011237956e-10       5.148218526463e-15       3.998165586586e-13       0.000000000000e+00       3.573410623620e-09       2.695796864073e-10      -9.767911324895e-13 
    5       1.266636587248e-10       3.372202956810e-15       3.391751716428e-13       0.000000000000e+00       2.668742464170e-09       2.123131699806e-10      -5.310279353085e-13 
    6       1.222128453066e-10       1.854980261599e-15       2.715871610801e-13       0.000000000000e+00       2.084686310045e-09       1.723349852202e-10      -2.072583923545e-13 
    7       1.192618169255e-10       9.970924951669e-16       2.117224334888e-13       0.000000000000e+00       1.680637800882e-09       1.430920209281e-10      -5.088523375150e-15 
    8       1.174517881375e-10       6.484097333742e-16       1.659071191612e-13       0.000000000000e+00       1.387201414165e-09       1.209773292563e-10       9.390956576999e-14 
    9       1.164842022226e-10       5.208344182915e-16       1.354181425421e-13       0.000000000000e+00       1.166709824555e-09       1.038401571703e-10       1.170788165919e-13 
   10       1.161116061058e-10       4.388701208113e-16       1.186540217729e-13       0.000000000000e+00       9.966358087582e-10       9.028043024253e-11       9.395888593593e-14 
   11       1.162376713594e-10       3.648789580424e-16       1.125830526085e-13       0.000000000000e+00       8.432468000001e-10       7.968593894649e-11       5.145233471624e-14 
   12       1.167165319326e-10       3.171919261195e-16       1.137792888672e-13       0.000000000000e+00       7.367179820906e-10       7.043637252524e-11       8.506003294233e-15 
   13       1.174784586912e-10       3.043658200963e-16       1.192689730658e-13       0.000000000000e+00       6.492675149086e-10       6.289379589968e-11      -2.257333297188e-14 
   14       1.184505371754e-10       3.151749330695e-16       1.268685385062e-13       0.000000000000e+00       5.765083612866e-10       5.630744340545e-11      -3.807920085200e-14 
   15       1.196304060366e-10       3.376020529803e-16       1.351596110023e-13       0.000000000000e+00       5.152644341044e-10       5.077087784016e-11      -3.911722215034e-14 
   16       1.209584583119e-10       3.710514919928e-16       1.435382253377e-13       0.000000000000e+00       4.631936822948e-10       4.602118396330e-11      -3.058998237200e-14 
   17       1.224244077342e-10       4.221521469767e-16       1.519060669290e-13       0.000000000000e+00       4.185268224646e-10       4.189319171620e-11      -1.835707229422e-14 
   18       1.239802233058e-10       4.958406847682e-16       1.605036864838e-13       0.000000000000e+00       3.797605308469e-10       3.827081718017e-11      -7.624524389709e-15 
   19       1.256374283962e-10       5.918706315706e-16       1.695718355913e-13       0.000000000000e+00       3.462764252700e-10       3.511440177682e-11      -8.584013963578e-16 
   20       1.273748126711e-10       7.076955453827e-16       1.792906386277e-13       0.000000000000e+00       3.167868817548e-10       3.233016269820e-11       6.145688426529e-16 
   21       1.291986157891e-10       8.427112762429e-16       1.896136370126e-13       0.000000000000e+00       2.908287064229e-10       2.986666672538e-11      -2.207638154473e-15 
   22       1.310904165899e-10       9.965693367933e-16       2.003190466969e-13       0.000000000000e+00       2.677800373228e-10       2.764734942807e-11      -7.115543589384e-15 
   23       1.330482398474e-10       1.169036832382e-15       2.109674565778e-13       0.000000000000e+00       2.473240181474e-10       2.564957044562e-11      -1.224087463281e-14 
   24       1.350550208294e-10       1.359836559508e-15       2.210158485588e-13       0.000000000000e+00       2.289881254350e-10       2.384571367119e-11      -1.575950906298e-14 
   25       1.371216285073e-10       1.569513383615e-15       2.301933874794e-13       0.000000000000e+00       2.125566353243e-10       2.222826794682e-11      -1.704047005149e-14 
   26       1.392486562092e-10       1.799077548200e-15       2.383245134293e-13       0.000000000000e+00       1.977319987487e-10       2.077756182557e-11      -1.603163799216e-14 
   27       1.414219293831e-10       2.050586402568e-15       2.453416923862e-13       0.000000000000e+00       1.843362646910e-10       1.946525547376e-11      -1.354542800752e-14 
   28       1.436146305782e-10       2.326412157865e-15       2.512395418302e-13       0.000000000000e+00       1.721384025647e-10       1.825335713483e-11      -1.073998077519e-14 
   29       1.458369260954e-10       2.628001164072e-15       2.560835241614e-13       0.000000000000e+00       1.610760493000e-10       1.714070027303e-11      -8.251073047259e-15 
   30       1.480998195034e-10       2.956496739017e-15       2.599969184470e-13       0.000000000000e+00       1.510303676937e-10       1.612907206065e-11      -6.645361478681e-15 
   31       1.504032991741e-10       3.312972031077e-15       2.631048179689e-13       0.000000000000e+00       1.417963957161e-10       1.521068734335e-11      -6.413606610284e-15 
   32       1.527497572553e-10       3.698346329391e-15       2.653516274202e-13       0.000000000000e+00       1.333263703799e-10       1.437513548830e-11      -7.275235640320e-15 
   33       1.551327505253e-10       4.113422884258e-15       2.666139873285e-13       0.000000000000e+00       1.255603135493e-10       1.360307029819e-11      -8.596705831164e-15 
   34       1.575390114933e-10       4.558958240600e-15       2.667507315637e-13       0.000000000000e+00       1.183894623194e-10       1.287151506694e-11      -9.698401598708e-15 
   35       1.599729883996e-10       5.035859725280e-15       2.656195689582e-13       0.000000000000e+00       1.117770544347e-10       1.218237627890e-11      -1.034719196099e-14 
   36       1.624391256418e-10       5.545048895818e-15       2.630635260488e-13       0.000000000000e+00       1.056699891666e-10       1.154307782897e-11      -1.042957777823e-14 
   37       1.649368756011e-10       6.087392635717e-15       2.589389920352e-13       0.000000000000e+00       9.998872873279e-11       1.095789415971e-11      -9.879826593289e-15 
   38       1.674687004051e-10       6.663656686749e-15       2.532320939084e-13       0.000000000000e+00       9.471854746057e-11       1.042493860027e-11      -8.879748906599e-15 
   39       1.700334839401e-10       7.274529820066e-15       2.459814643095e-13       0.000000000000e+00       8.984268018357e-11       9.937623791322e-12      -7.729768221249e-15 
   40       1.726235517256e-10       7.920630539215e-15       2.372488860281e-13       0.000000000000e+00       8.531456696691e-11       9.485016219353e-12      -6.801275999807e-15 
   41       1.752290050746e-10       8.602549993563e-15       2.270963317586e-13       0.000000000000e+00       8.107406052513e-11       9.055134346741e-12      -6.434256433148e-15 
   42       1.778539943949e-10       9.321008284635e-15       2.155047235343e-13       0.000000000000e+00       7.710864035068e-11       8.646981948856e-12      -6.579191505305e-15 
   43       1.805046413822e-10       1.007674150560e-14       2.024310866853e-13       0.000000000000e+00       7.340775230659e-11       8.261838517894e-12      -7.046207162963e-15 
   44       1.831842012738e-10       1.087045754384e-14       1.878303617932e-13       0.000000000000e+00       6.994444091837e-11       7.899846818497e-12      -7.599147477866e-15 
   45       1.858937600381e-10       1.170279795934e-14       1.716559342396e-13       0.000000000000e+00       6.668496748549e-11       7.560289570863e-12      -8.011603041931e-15 
   46       1.886353104288e-10       1.257421294090e-14       1.538620631450e-13       0.000000000000e+00       6.362416942795e-11       7.242757494071e-12      -8.261620898704e-15 
   47       1.914090643159e-10       1.348504686526e-14       1.344017082990e-13       0.000000000000e+00       6.075845151346e-11       6.946157683779e-12      -8.390404698291e-15 
   48       1.942122754701e-10       1.443556866519e-14       1.132255631016e-13       0.000000000000e+00       5.807512139622e-11       6.668287956112e-12      -8.449070233029e-15 
   49       1.970389854007e-10       1.542596846981e-14       9.028182451243e-14       0.000000000000e+00       5.555171334622e-11       6.405757059810e-12      -8.499212594737e-15 
   50       1.998827834892e-10       1.645638549641e-14       6.552231199827e-14       0.000000000000e+00       5.316274692643e-11       6.154970092654e-12      -8.599466187857e-15 
   51       2.027465602863e-10       1.752700844599e-14       3.892331616152e-14       0.000000000000e+00       5.090373474939e-11       5.915585191829e-12      -8.759568168322e-15 
   52       2.056349623034e-10       1.863799655143e-14       1.047001157838e-14       0.000000000000e+00       4.877252237933e-11       5.687857204880e-12      -8.974806410504e-15 
   53       2.085514994551e-10       1.978944886346e-14      -1.984933049480e-14       0.000000000000e+00       4.676210429513e-11       5.471625534807e-12      -9.238847035277e-15 
   54       2.114984327471e-10       2.098140236153e-14      -5.204327339654e-14       0.000000000000e+00       4.486029749947e-11       5.266284479468e-12      -9.543642407542e-15 
   55       2.144770786750e-10       2.221384458517e-14      -8.611774901242e-14       0.000000000000e+00       4.305345301033e-11       5.071043702239e-12      -9.878989703205e-15 
   56       2.174890682717e-10       2.348675953034e-14      -1.220779724059e-13       0.000000000000e+00       4.133941777374e-11       4.885853367024e-12      -1.023128896254e-14 
   57       2.205352041103e-10       2.480008984584e-14      -1.599268824456e-13       0.000000000000e+00       3.971722106917e-11       4.710656873776e-12      -1.058431536107e-14 
   58       2.236149770095e-10       2.615372201733e-14      -1.996645365414e-13       0.000000000000e+00       3.818315335468e-11       4.545102905717e-12      -1.091943829097e-14 
   59       2.267264699567e-10       2.754748504390e-14      -2.412880654000e-13       0.000000000000e+00       3.673059719607e-11       4.388527072555e-12      -1.121551574450e-14 
   60       2.298662620309e-10       2.898114911481e-14      -2.847916277811e-13       0.000000000000e+00       3.534985819619e-11       4.239933553697e-12      -1.144878869726e-14 
   61       2.330308862503e-10       3.045437352178e-14      -3.301672164458e-13       0.000000000000e+00       3.403085333260e-11       4.098267447259e-12      -1.159846057086e-14 
   62       2.362218028568e-10       3.196653972759e-14      -3.774073897545e-13       0.000000000000e+00       3.277226359643e-11       3.963344781332e-12      -1.166513802236e-14 
   63       2.394413769285e-10       3.351687830907e-14      -4.265030757094e-13       0.000000000000e+00       3.157414509207e-11       3.835099629308e-12      -1.165636080690e-14 
   64       2.426913771140e-10       3.510451353916e-14      -4.774427569912e-13       0.000000000000e+00       3.043517605919e-11       3.713302872667e-12      -1.158135523790e-14 
   65       2.459729288600e-10       3.672846045281e-14      -5.302124527227e-13       0.000000000000e+00       2.935257846545e-11       3.597553068070e-12      -1.145110895375e-14 
   66       2.492864676392e-10       3.838762191289e-14      -5.847957002325e-13       0.000000000000e+00       2.832203959908e-11       3.487267314448e-12      -1.127844568436e-14 
   67       2.526316921782e-10       4.008078567621e-14      -6.411735368183e-13       0.000000000000e+00       2.733763366157e-11       3.381672120094e-12      -1.107810001777e-14 
   68       2.560081071616e-10       4.180673296899e-14      -6.993244782898e-13       0.000000000000e+00       2.639340196110e-11       3.280006442489e-12      -1.086417236807e-14 
   69       2.594168835910e-10       4.356459631929e-14      -7.592244903103e-13       0.000000000000e+00       2.548864056655e-11       3.182198996583e-12      -1.064172792260e-14 
   70       2.628592930923e-10       4.535356929312e-14      -8.208469784608e-13       0.000000000000e+00       2.462354813982e-11       3.088312410820e-12      -1.041362191290e-14 
   71       2.663361206640e-10       4.717280131950e-14      -8.841627729568e-13       0.000000000000e+00       2.379762679092e-11       2.998339557340e-12      -1.018297642189e-14 
   72       2.698476329808e-10       4.902139760831e-14      -9.491401103302e-13       0.000000000000e+00       2.300964609005e-11       2.912199845478e-12      -9.953188147927e-15 
   73       2.733935466981e-10       5.089841906811e-14      -1.015744615110e-12       0.000000000000e+00       2.225760707974e-11       2.829735515274e-12      -9.727936168905e-15 
   74       2.769729967553e-10       5.280288222401e-14      -1.083939281504e-12       0.000000000000e+00       2.153870628692e-11       2.750707930974e-12      -9.511189706316e-15 
   75       2.805845046801e-10       5.473375913554e-14      -1.153684455079e-12       0.000000000000e+00       2.084929973505e-11       2.674793874533e-12      -9.307215889351e-15 
   76       2.842266335891e-10       5.668993189944e-14      -1.224939359996e-12       0.000000000000e+00       2.018580601944e-11       2.601669716071e-12      -9.119816755671e-15 
   77       2.879001611504e-10       5.867004676147e-14      -1.297667042729e-12       0.000000000000e+00       1.954768520667e-11       2.531289838635e-12      -8.949862459608e-15 
   78       2.916062471269e-10       6.067263312838e-14      -1.371830300761e-12       0.000000000000e+00       1.893494029290e-11       2.463652487465e-12      -8.797320248435e-15 
   79       2.953457645023e-10       6.269614562575e-14      -1.447390230171e-12       0.000000000000e+00       1.834720987053e-11       2.398714523544e-12      -8.661977408401e-15 
   80       2.991192818663e-10       6.473896308460e-14      -1.524306239003e-12       0.000000000000e+00       1.778375139661e-11       2.336389519089e-12      -8.543433223690e-15 
   81       3.029270457997e-10       6.679938752796e-14      -1.602536060643e-12       0.000000000000e+00       1.724342446116e-11       2.276545853042e-12      -8.441090935374e-15 
   82       3.067689632595e-10       6.887564315742e-14      -1.682035767192e-12       0.000000000000e+00       1.672467405554e-11       2.219004806563e-12      -8.354149700375e-15 
   83       3.106445839642e-10       7.096587533977e-14      -1.762759782843e-12       0.000000000000e+00       1.622551384080e-11       2.163538658524e-12      -8.281596550422e-15 
   84       3.145533960140e-10       7.306821065632e-14      -1.844660282279e-12       0.000000000000e+00       1.574400792957e-11       2.109925683489e-12      -8.222166848112e-15 
   85       3.184958076440e-10       7.518095070906e-14      -1.927685242003e-12       0.000000000000e+00       1.527984464997e-11       2.058129793262e-12      -8.174235736614e-15 
   86       3.224722966857e-10       7.730240873478e-14      -2.011780088979e-12       0.000000000000e+00       1.483299421480e-11       2.008147322748e-12      -8.135893868104e-15 
   87       3.264830996343e-10       7.943085141155e-14      -2.096888289876e-12       0.000000000000e+00       1.440322517460e-11       1.959951841123e-12      -8.104968862497e-15 
   88       3.305281992982e-10       8.156449887161e-14      -2.182951354108e-12       0.000000000000e+00       1.399009606436e-11       1.913493203672e-12      -8.079016736943e-15 
   89       3.346073124490e-10       8.370152471413e-14      -2.269908836865e-12       0.000000000000e+00       1.359294705026e-11       1.868696603623e-12      -8.055313335322e-15 
   90       3.387198774706e-10       8.584005601813e-14      -2.357698342161e-12       0.000000000000e+00       1.321089157642e-11       1.825461623987e-12      -8.030845757747e-15 
   91       3.428650420091e-10       8.797817335529e-14      -2.446255525865e-12       0.000000000000e+00       1.284280801163e-11       1.783661289392e-12      -8.002303790059e-15 
   92       3.470416506225e-10       9.011391080278e-14      -2.535514098743e-12       0.000000000000e+00       1.248733129606e-11       1.743141117920e-12      -7.966071333323e-15 
   93       3.512485923057e-10       9.224528890440e-14      -2.625407038184e-12       0.000000000000e+00       1.214317619176e-11       1.703757552346e-12      -7.919081293685e-15 
   94       3.554859296817e-10       9.437041919679e-14      -2.715870425241e-12       0.000000000000e+00       1.181018079067e-11       1.665501925122e-12      -7.861545945266e-15 
   95       3.597539175962e-10       9.648741550085e-14      -2.806840192985e-12       0.000000000000e+00       1.148840523617e-11       1.628393471430e-12      -7.794623278802e-15 
   96       3.640526510636e-10       9.859436283310e-14      -2.898250988602e-12       0.000000000000e+00       1.117781035294e-11       1.592441208882e-12      -7.719593368817e-15 
   97       3.683820578563e-10       1.006893178708e-13      -2.990036193025e-12       0.000000000000e+00       1.087825384552e-11       1.557643529906e-12      -7.637861655691e-15 
   98       3.727418910943e-10       1.027703094172e-13      -3.082127940564e-12       0.000000000000e+00       1.058948649693e-11       1.523987794147e-12      -7.550962227744e-15 
   99       3.771317218347e-10       1.048353388663e-13      -3.174457138534e-12       0.000000000000e+00       1.031114836728e-11       1.491449920847e-12      -7.460561103309e-15 
  100       3.815509316614e-10       1.068823806683e-13      -3.266953486885e-12       0.000000000000e+00       1.004276499237e-11       1.459993981246e-12      -7.368459512808e-15 
  101       3.859987052745e-10       1.089093827949e-13      -3.359545497834e-12       0.000000000000e+00       9.783743582307e-12       1.429571790967e-12      -7.276597180830e-15 
  102       3.904740230801e-10       1.109142672037e-13      -3.452160515493e-12       0.000000000000e+00       9.533369220089e-12       1.400122502407e-12      -7.187055608203e-15 
  103       3.949756537796e-10       1.128949303040e-13      -3.544724735499e-12       0.000000000000e+00       9.290801060228e-12       1.371572197135e-12      -7.102061354077e-15 
  104       3.995024088593e-10       1.148492944425e-13      -3.637163777135e-12       0.000000000000e+00       9.055262570374e-12       1.343850756619e-12      -7.023501677096e-15 
  105       4.040539611710e-10       1.167754692801e-13      -3.729404445415e-12       0.000000000000e+00       8.826649711777e-12       1.316945947870e-12      -6.951389873112e-15 
  106       4.086301236294e-10       1.186716131834e-13      -3.821373244739e-12       0.000000000000e+00       8.604998210719e-12       1.290855918094e-12      -6.885197780604e-15 
  107       4.132305927089e-10       1.205358851639e-13      -3.912995873042e-12       0.000000000000e+00       8.390295203008e-12       1.265572353675e-12      -6.824322857478e-15 
