# Matter power spectrum P(k) at redshift z=99
# for k=1.00899e-05 to 203.102 h/Mpc,
# number of wavenumbers equal to 845
#    1:k (h/Mpc)              2:P (Mpc/h)^3        
       1.008985923385e-05       8.602999896389e-03 
       2.251775554930e-05       1.859274192862e-02 
       3.498636120606e-05       2.838314402662e-02 
       4.752690065129e-05       3.808703551381e-02 
       6.017107953816e-05       4.776660452574e-02 
       7.295134796828e-05       5.746720920538e-02 
       8.590117159567e-05       6.722680167097e-02 
       9.905531396721e-05       7.707975517623e-02 
       1.124501335013e-04       8.705879133211e-02 
       1.261238985365e-04       9.719612385645e-02 
       1.401171238971e-04       1.075242304173e-01 
       1.544729323969e-04       1.180764313636e-01 
       1.692374446017e-04       1.288873786542e-01 
       1.844601999509e-04       1.399934822644e-01 
       2.001946119308e-04       1.514333189315e-01 
       2.164984593225e-04       1.632480291106e-01 
       2.334344144963e-04       1.754817149941e-01 
       2.510706081659e-04       1.881818465135e-01 
       2.694812277618e-04       2.013996660242e-01 
       2.887471434300e-04       2.151906097164e-01 
       3.089565513521e-04       2.296147159909e-01 
       3.302056183397e-04       2.447370206979e-01 
       3.525991041884e-04       2.606279310451e-01 
       3.762509288441e-04       2.773635317082e-01 
       4.012846398935e-04       2.950258174403e-01 
       4.278337223492e-04       3.137027944061e-01 
       4.560416776520e-04       3.334883997849e-01 
       4.860617833901e-04       3.544821925042e-01 
       5.180564314341e-04       3.767887253523e-01 
       5.521959331310e-04       4.005165427562e-01 
       5.886566802046e-04       4.257767306143e-01 
       6.276185644258e-04       4.526809367325e-01 
       6.692615935926e-04       4.813388642713e-01 
       7.137617004578e-04       5.118552273399e-01 
       7.612858262925e-04       5.443262387073e-01 
       8.119864673565e-04       5.788357812951e-01 
       8.659959883789e-04       6.154515056705e-01 
       9.234211117495e-04       6.542211055792e-01 
       9.843380585498e-04       6.951691493315e-01 
       1.048788822721e-03       7.382947493539e-01 
       1.116778987109e-03       7.835703940886e-01 
       1.188277341859e-03       8.309420438287e-01 
       1.263217364320e-03       8.803307481430e-01 
       1.341500404014e-03       9.316436145236e-01 
       1.423000230117e-03       9.847537758840e-01 
       1.507568477514e-03       1.039525743921e+00 
       1.595040487398e-03       1.095813341849e+00 
       1.685241075052e-03       1.153463899252e+00 
       1.777989849946e-03       1.212322035830e+00 
       1.873105833493e-03       1.272232938843e+00 
       1.970411241375e-03       1.333045058685e+00 
       2.069734401352e-03       1.394612074260e+00 
       2.170911854437e-03       1.456794419191e+00 
       2.273789735608e-03       1.519460263238e+00 
       2.378224553543e-03       1.582485923191e+00 
       2.484083493407e-03       1.645756227547e+00 
       2.591244358870e-03       1.709164200556e+00 
       2.699595254824e-03       1.772611336644e+00 
       2.809034094888e-03       1.836006678750e+00 
       2.919468000394e-03       1.899266881833e+00 
       3.030812641761e-03       1.962315389717e+00 
       3.142991559685e-03       2.025082542583e+00 
       3.255935492585e-03       2.087504194159e+00 
       3.369581728141e-03       2.149522213063e+00 
       3.483873490193e-03       2.211083431412e+00 
       3.598759367421e-03       2.272140095469e+00 
       3.714192786759e-03       2.332647835697e+00 
       3.830131532053e-03       2.392567429098e+00 
       3.946537306880e-03       2.451862532151e+00 
       4.063375339396e-03       2.510501516482e+00 
       4.180614026477e-03       2.568454535394e+00 
       4.298224614140e-03       2.625696440998e+00 
       4.416180911106e-03       2.682203774080e+00 
       4.534459032436e-03       2.737955586741e+00 
       4.653037170281e-03       2.792934297462e+00 
       4.771895388998e-03       2.847123534991e+00 
       4.891015442065e-03       2.900510475473e+00 
       5.010380608463e-03       2.953083007243e+00 
       5.129975546421e-03       3.004830471966e+00 
       5.249786162607e-03       3.055745932575e+00 
       5.369799495068e-03       3.105822017198e+00 
       5.490003608392e-03       3.155054917321e+00 
       5.610387499743e-03       3.203440316292e+00 
       5.730941014549e-03       3.250975487905e+00 
       5.851654770797e-03       3.297659729333e+00 
       5.972520090970e-03       3.343493727155e+00 
       6.093528940795e-03       3.388477732233e+00 
       6.214673874059e-03       3.432613924079e+00 
       6.335947982840e-03       3.475905655063e+00 
       6.457344852562e-03       3.518355345945e+00 
       6.578858521367e-03       3.559969171194e+00 
       6.700483443346e-03       3.600751694144e+00 
       6.822214455222e-03       3.640707378712e+00 
       6.944046746129e-03       3.679843627323e+00 
       7.065975830168e-03       3.718167477039e+00 
       7.187997521452e-03       3.755684041264e+00 
       7.310107911398e-03       3.792403792694e+00 
       7.432303348035e-03       3.828333867153e+00 
       7.554580417124e-03       3.863482133159e+00 
       7.676935924931e-03       3.897855213850e+00 
       7.799366882465e-03       3.931463742292e+00 
       7.921870491067e-03       3.964316496514e+00 
       8.044444129208e-03       3.996421990812e+00 
       8.167085340379e-03       4.027789637476e+00 
       8.289791821990e-03       4.058427504696e+00 
       8.412561415158e-03       4.088346429654e+00 
       8.535392095331e-03       4.117554775381e+00 
       8.658281963652e-03       4.146061542990e+00 
       8.781229239010e-03       4.173875218584e+00 
       8.904232250708e-03       4.201007639618e+00 
       9.027289431704e-03       4.227465447478e+00 
       9.150399312368e-03       4.253257858787e+00 
       9.273560514714e-03       4.278394659457e+00 
       9.396771747065e-03       4.302884216335e+00 
       9.520031799123e-03       4.326734806147e+00 
       9.643339537395e-03       4.349956325712e+00 
       9.766693900965e-03       4.372554895923e+00 
       9.890093897566e-03       4.394541329045e+00 
       1.001353859994e-02       4.415923702934e+00 
       1.013702714247e-02       4.436707758673e+00 
       1.026055871802e-02       4.456902887925e+00 
       1.038413257505e-02       4.476516388103e+00 
       1.050774801489e-02       4.495559112249e+00 
       1.063140438921e-02       4.514031707561e+00 
       1.075510109773e-02       4.531949454674e+00 
       1.087883758598e-02       4.549314439571e+00 
       1.100261334330e-02       4.566133419338e+00 
       1.112642790095e-02       4.582415095711e+00 
       1.125028083038e-02       4.598166764808e+00 
       1.137417174154e-02       4.613393887980e+00 
       1.149810028141e-02       4.628104823472e+00 
       1.162206613256e-02       4.642302717614e+00 
       1.174606901183e-02       4.655997080764e+00 
       1.187010866910e-02       4.669193174819e+00 
       1.199418488617e-02       4.681897000044e+00 
       1.211829747567e-02       4.694113749808e+00 
       1.224244628010e-02       4.705851469387e+00 
       1.236663117090e-02       4.717114445714e+00 
       1.249085204757e-02       4.727908404730e+00 
       1.261510883696e-02       4.738240459603e+00 
       1.273940149246e-02       4.748113500473e+00 
       1.286372999336e-02       4.757537511150e+00 
       1.298809434421e-02       4.766513168550e+00 
       1.311249457428e-02       4.775049819474e+00 
       1.323693073698e-02       4.783149862290e+00 
       1.336140290942e-02       4.790820742626e+00 
       1.348591119193e-02       4.798068211680e+00 
       1.361045570765e-02       4.804895828398e+00 
       1.373503660222e-02       4.811309475649e+00 
       1.385965404336e-02       4.817315476217e+00 
       1.398430822064e-02       4.822916173409e+00 
       1.410899934517e-02       4.828120382919e+00 
       1.423372764937e-02       4.832928910047e+00 
       1.435849338678e-02       4.837351792039e+00 
       1.448329683185e-02       4.841388204929e+00 
       1.460813827981e-02       4.845048765520e+00 
       1.473301804651e-02       4.848336929385e+00 
       1.485793646835e-02       4.851255753139e+00 
       1.498289390217e-02       4.853808629505e+00 
       1.510789072521e-02       4.856007032656e+00 
       1.523292733507e-02       4.857849457502e+00 
       1.535800414968e-02       4.859342599972e+00 
       1.548312160735e-02       4.860493985357e+00 
       1.560828016672e-02       4.861306696715e+00 
       1.573348030688e-02       4.861780450328e+00 
       1.585872252741e-02       4.861925424556e+00 
       1.598400734844e-02       4.861746623771e+00 
       1.610933531079e-02       4.861244702931e+00 
       1.623470697605e-02       4.860430084126e+00 
       1.636012292677e-02       4.859304460893e+00 
       1.648558376655e-02       4.857869159571e+00 
       1.661109012028e-02       4.856132883512e+00 
       1.673664263428e-02       4.854100391694e+00 
       1.686224197652e-02       4.851770710229e+00 
       1.698788883685e-02       4.849155189864e+00 
       1.711358392725e-02       4.846251314244e+00 
       1.723932798205e-02       4.843070265924e+00 
       1.736512175823e-02       4.839611268180e+00 
       1.749096603570e-02       4.835880628113e+00 
       1.761686161762e-02       4.831879808120e+00 
       1.774280933070e-02       4.827623631089e+00 
       1.786881002554e-02       4.823099354730e+00 
       1.799486457700e-02       4.818325553794e+00 
       1.812097388457e-02       4.813299417986e+00 
       1.824713887274e-02       4.808022999019e+00 
       1.837336049141e-02       4.802505801860e+00 
       1.849963971633e-02       4.796750665943e+00 
       1.862597754953e-02       4.790755741488e+00 
       1.875237501977e-02       4.784531940952e+00 
       1.887883318301e-02       4.778079447568e+00 
       1.900535312294e-02       4.771406967967e+00 
       1.913193595143e-02       4.764510674739e+00 
       1.925858280911e-02       4.757400495315e+00 
       1.938529486592e-02       4.750073564041e+00 
       1.951207332163e-02       4.742541010511e+00 
       1.963891940648e-02       4.734800139346e+00 
       1.976583438176e-02       4.726866238218e+00 
       1.989281954046e-02       4.718722727616e+00 
       2.001987620788e-02       4.710388852471e+00 
       2.014700574237e-02       4.701867501326e+00 
       2.027420953594e-02       4.693153884653e+00 
       2.040148901504e-02       4.684257463741e+00 
       2.052884564128e-02       4.675179536120e+00 
       2.065628091220e-02       4.665926118267e+00 
       2.078379636203e-02       4.656499931018e+00 
       2.091139356253e-02       4.646901689483e+00 
       2.103907412384e-02       4.637128664131e+00 
       2.116683969530e-02       4.627202550099e+00 
       2.129469196640e-02       4.617104636860e+00 
       2.142263266765e-02       4.606848590757e+00 
       2.155066357157e-02       4.596449382776e+00 
       2.167878649364e-02       4.585900328963e+00 
       2.180700329333e-02       4.575187795296e+00 
       2.193531587513e-02       4.564339367010e+00 
       2.206372618964e-02       4.553343960162e+00 
       2.219223623466e-02       4.542211707669e+00 
       2.232084805636e-02       4.530948197594e+00 
       2.244956375042e-02       4.519546519935e+00 
       2.257838546331e-02       4.508010755669e+00 
       2.270731539347e-02       4.496355502772e+00 
       2.283635579267e-02       4.484571412003e+00 
       2.296550896730e-02       4.472655903187e+00 
       2.309477727980e-02       4.460641608763e+00 
       2.322416315002e-02       4.448502108666e+00 
       2.335366905675e-02       4.436250063252e+00 
       2.348329753921e-02       4.423885593045e+00 
       2.361305119861e-02       4.411410465129e+00 
       2.374293269977e-02       4.398831964613e+00 
       2.387294477280e-02       4.386157317849e+00 
       2.400309021484e-02       4.373373766569e+00 
       2.413337189178e-02       4.360503068649e+00 
       2.426379274017e-02       4.347535150747e+00 
       2.439435576908e-02       4.334465245701e+00 
       2.452506406208e-02       4.321315569002e+00 
       2.465592077927e-02       4.308072725317e+00 
       2.478692915937e-02       4.294756854003e+00 
       2.491809252189e-02       4.281347956432e+00 
       2.504941426942e-02       4.267858415763e+00 
       2.518089788986e-02       4.254293475900e+00 
       2.531254695892e-02       4.240655800024e+00 
       2.544436514254e-02       4.226948134591e+00 
       2.557635619949e-02       4.213155702900e+00 
       2.570852398403e-02       4.199312843035e+00 
       2.584087244865e-02       4.185401243637e+00 
       2.597340564696e-02       4.171412735095e+00 
       2.610612773662e-02       4.157373318789e+00 
       2.623904298241e-02       4.143271949567e+00 
       2.637215575941e-02       4.129109489562e+00 
       2.650547055630e-02       4.114899997957e+00 
       2.663899197875e-02       4.100622588895e+00 
       2.677272475300e-02       4.086307853030e+00 
       2.690667372948e-02       4.071939998274e+00 
       2.704084388668e-02       4.057513818464e+00 
       2.717524033506e-02       4.043053371574e+00 
       2.730986832117e-02       4.028555374697e+00 
       2.744473323193e-02       4.014007853385e+00 
       2.757984059904e-02       3.999407475831e+00 
       2.771519610360e-02       3.984783733594e+00 
       2.785080558089e-02       3.970130121483e+00 
       2.798667502534e-02       3.955419980417e+00 
       2.812281059571e-02       3.940695704250e+00 
       2.825921862046e-02       3.925922630098e+00 
       2.839590560337e-02       3.911134749289e+00 
       2.853287822937e-02       3.896314862841e+00 
       2.867014337060e-02       3.881460127518e+00 
       2.880770809274e-02       3.866587093417e+00 
       2.894557966159e-02       3.851697541072e+00 
       2.908376554997e-02       3.836776252279e+00 
       2.922227344485e-02       3.821839741222e+00 
       2.936111125486e-02       3.806874840472e+00 
       2.950028711803e-02       3.791900272739e+00 
       2.963980940998e-02       3.776902378236e+00 
       2.977968675242e-02       3.761887773371e+00 
       2.991992802197e-02       3.746864340512e+00 
       3.006054235952e-02       3.731831606206e+00 
       3.020153917986e-02       3.716780748812e+00 
       3.034292818185e-02       3.701723628566e+00 
       3.048471935906e-02       3.686652260557e+00 
       3.062692301082e-02       3.671565156866e+00 
       3.076954975391e-02       3.656502207526e+00 
       3.091261053472e-02       3.641415849271e+00 
       3.105611664203e-02       3.626324675824e+00 
       3.120007972039e-02       3.611230420593e+00 
       3.134451178417e-02       3.596118456194e+00 
       3.148942523232e-02       3.581021955275e+00 
       3.163483286384e-02       3.565923701428e+00 
       3.178074789403e-02       3.550828857387e+00 
       3.192718397158e-02       3.535721528025e+00 
       3.207415519655e-02       3.520624356339e+00 
       3.222167613928e-02       3.505534028170e+00 
       3.236976186026e-02       3.490434520052e+00 
       3.251842793110e-02       3.475366967900e+00 
       3.266769045662e-02       3.460266035953e+00 
       3.281756609808e-02       3.445201334784e+00 
       3.296807209781e-02       3.430118227324e+00 
       3.311922630503e-02       3.415055267467e+00 
       3.327104720329e-02       3.400016077558e+00 
       3.342355393934e-02       3.384961004931e+00 
       3.357676635374e-02       3.369906392284e+00 
       3.373070501315e-02       3.354887830080e+00 
       3.388539124463e-02       3.339868026025e+00 
       3.404084717188e-02       3.324856579645e+00 
       3.419709575366e-02       3.309853141204e+00 
       3.435416082463e-02       3.294872044284e+00 
       3.451206713858e-02       3.279898020365e+00 
       3.467084041444e-02       3.264927051854e+00 
       3.483050738512e-02       3.249953148947e+00 
       3.499109584951e-02       3.235006973344e+00 
       3.515263472782e-02       3.220091355677e+00 
       3.531515412053e-02       3.205164853460e+00 
       3.547868537122e-02       3.190256072357e+00 
       3.564326113364e-02       3.175362505040e+00 
       3.580891544335e-02       3.160473764779e+00 
       3.597568379423e-02       3.145601656768e+00 
       3.614360322038e-02       3.130745226619e+00 
       3.631271238380e-02       3.115888726113e+00 
       3.648305166828e-02       3.101053165197e+00 
       3.665466328025e-02       3.086226603157e+00 
       3.682759135694e-02       3.071418204644e+00 
       3.700188208264e-02       3.056612998510e+00 
       3.717758381384e-02       3.041818581098e+00 
       3.735474721393e-02       3.027038915082e+00 
       3.753342539844e-02       3.012253757778e+00 
       3.771367409180e-02       2.997491641330e+00 
       3.789555179669e-02       2.982740633440e+00 
       3.807911997726e-02       2.967986269306e+00 
       3.826444325751e-02       2.953249933048e+00 
       3.845158963647e-02       2.938518202321e+00 
       3.864063072175e-02       2.923791198975e+00 
       3.883164198345e-02       2.909064723905e+00 
       3.902470303062e-02       2.894344983166e+00 
       3.921989791253e-02       2.879627276023e+00 
       3.941731544758e-02       2.864909050282e+00 
       3.961704958289e-02       2.850190721432e+00 
       3.981919978798e-02       2.835476321150e+00 
       4.002387148648e-02       2.820760650888e+00 
       4.023117653032e-02       2.806037955664e+00 
       4.044123372141e-02       2.791307374658e+00 
       4.065416938658e-02       2.776573241208e+00 
       4.087011801240e-02       2.761829849861e+00 
       4.108922294733e-02       2.747076098735e+00 
       4.131163717982e-02       2.732305848630e+00 
       4.153752420241e-02       2.717524659349e+00 
       4.176705897322e-02       2.702730973570e+00 
       4.200042898802e-02       2.687909265748e+00 
       4.223783547839e-02       2.673073265337e+00 
       4.247949475379e-02       2.658208369807e+00 
       4.272563970839e-02       2.643314321449e+00 
       4.297652151713e-02       2.628391199822e+00 
       4.323241154967e-02       2.613423272206e+00 
       4.349360353592e-02       2.598430220701e+00 
       4.376041602319e-02       2.583385701454e+00 
       4.403319517213e-02       2.568297776088e+00 
       4.431231794788e-02       2.553159085969e+00 
       4.459819577357e-02       2.537961192286e+00 
       4.489127872701e-02       2.522700257278e+00 
       4.519206037738e-02       2.507365190745e+00 
       4.550108337953e-02       2.491964602145e+00 
       4.581894596815e-02       2.476485336407e+00 
       4.614630952536e-02       2.460905043803e+00 
       4.648390743429e-02       2.445214138666e+00 
       4.683255547970e-02       2.429432663646e+00 
       4.719316411816e-02       2.413528091664e+00 
       4.756675301773e-02       2.397482927221e+00 
       4.795446836503e-02       2.381313472022e+00 
       4.835760356241e-02       2.364993825117e+00 
       4.877762409663e-02       2.348479481874e+00 
       4.921619756285e-02       2.331765548756e+00 
       4.967523008562e-02       2.314815804253e+00 
       5.015691070604e-02       2.297620679689e+00 
       5.066376571717e-02       2.280146686470e+00 
       5.119872544391e-02       2.262338083971e+00 
       5.176520658853e-02       2.244176629494e+00 
       5.236721399178e-02       2.225590186256e+00 
       5.300946644312e-02       2.206506216856e+00 
       5.369755187007e-02       2.186838797545e+00 
       5.443811751592e-02       2.166481859233e+00 
       5.523909986870e-02       2.145293323041e+00 
       5.610999570581e-02       2.123080459114e+00 
       5.706216694303e-02       2.099593331628e+00 
       5.810915312358e-02       2.074514311249e+00 
