# Matter power spectrum P(k) at redshift z=99
# for k=1.00899e-05 to 203.102 h/Mpc,
# number of wavenumbers equal to 845
#    1:k (h/Mpc)              2:P (Mpc/h)^3        
       1.008985923385e-05       8.602999896387e-03 
       2.251775554930e-05       1.859274192862e-02 
       3.498636120606e-05       2.838314402661e-02 
       4.752690065129e-05       3.808703551380e-02 
       6.017107953816e-05       4.776660452573e-02 
       7.295134796828e-05       5.746720920537e-02 
       8.590117159567e-05       6.722680167096e-02 
       9.905531396721e-05       7.707975517621e-02 
       1.124501335013e-04       8.705879133209e-02 
       1.261238985365e-04       9.719612385643e-02 
       1.401171238971e-04       1.075242304173e-01 
       1.544729323969e-04       1.180764313636e-01 
       1.692374446017e-04       1.288873786541e-01 
       1.844601999509e-04       1.399934822643e-01 
       2.001946119308e-04       1.514333189315e-01 
       2.164984593225e-04       1.632480291105e-01 
       2.334344144963e-04       1.754817149940e-01 
       2.510706081659e-04       1.881818465135e-01 
       2.694812277618e-04       2.013996660242e-01 
       2.887471434300e-04       2.151906097164e-01 
       3.089565513521e-04       2.296147159908e-01 
       3.302056183397e-04       2.447370206979e-01 
       3.525991041884e-04       2.606279310451e-01 
       3.762509288441e-04       2.773635317081e-01 
       4.012846398935e-04       2.950258174403e-01 
       4.278337223492e-04       3.137027944060e-01 
       4.560416776520e-04       3.334883997849e-01 
       4.860617833901e-04       3.544821925042e-01 
       5.180564314341e-04       3.767887253522e-01 
       5.521959331310e-04       4.005165427561e-01 
       5.886566802046e-04       4.257767306142e-01 
       6.276185644258e-04       4.526809367324e-01 
       6.692615935926e-04       4.813388642713e-01 
       7.137617004578e-04       5.118552273398e-01 
       7.612858262925e-04       5.443262387072e-01 
       8.119864673565e-04       5.788357812951e-01 
       8.659959883789e-04       6.154515056704e-01 
       9.234211117495e-04       6.542211055792e-01 
       9.843380585498e-04       6.951691493315e-01 
       1.048788822721e-03       7.382947493539e-01 
       1.116778987109e-03       7.835703940886e-01 
       1.188277341859e-03       8.309420438287e-01 
       1.263217364320e-03       8.803307481430e-01 
       1.341500404014e-03       9.316436145237e-01 
       1.423000230117e-03       9.847537758841e-01 
       1.507568477514e-03       1.039525743921e+00 
       1.595040487398e-03       1.095813341849e+00 
       1.685241075052e-03       1.153463899252e+00 
       1.777989849946e-03       1.212322035831e+00 
       1.873105833493e-03       1.272232938843e+00 
       1.970411241375e-03       1.333045058685e+00 
       2.069734401352e-03       1.394612074261e+00 
       2.170911854437e-03       1.456794419192e+00 
       2.273789735608e-03       1.519460263239e+00 
       2.378224553543e-03       1.582485923192e+00 
       2.484083493407e-03       1.645756227548e+00 
       2.591244358870e-03       1.709164200557e+00 
       2.699595254824e-03       1.772611336645e+00 
       2.809034094888e-03       1.836006678751e+00 
       2.919468000394e-03       1.899266881834e+00 
       3.030812641761e-03       1.962315389719e+00 
       3.142991559685e-03       2.025082542584e+00 
       3.255935492585e-03       2.087504194161e+00 
       3.369581728141e-03       2.149522213064e+00 
       3.483873490193e-03       2.211083431415e+00 
       3.598759367421e-03       2.272140095470e+00 
       3.714192786759e-03       2.332647835699e+00 
       3.830131532053e-03       2.392567429099e+00 
       3.946537306880e-03       2.451862532150e+00 
       4.063375339396e-03       2.510501516483e+00 
       4.180614026477e-03       2.568454535394e+00 
       4.298224614140e-03       2.625696440998e+00 
       4.416180911106e-03       2.682203774078e+00 
       4.534459032436e-03       2.737955586740e+00 
       4.653037170281e-03       2.792934297460e+00 
       4.771895388998e-03       2.847123534991e+00 
       4.891015442065e-03       2.900510475469e+00 
       5.010380608463e-03       2.953083007238e+00 
       5.129975546421e-03       3.004830471958e+00 
       5.249786162607e-03       3.055745932567e+00 
       5.369799495068e-03       3.105822017180e+00 
       5.490003608392e-03       3.155054917310e+00 
       5.610387499743e-03       3.203440316205e+00 
       5.730941014549e-03       3.250975487890e+00 
       5.851654770797e-03       3.297659729315e+00 
       5.972520090970e-03       3.343493727135e+00 
       6.093528940795e-03       3.388477732215e+00 
       6.214673874059e-03       3.432613924155e+00 
       6.335947982840e-03       3.475905655033e+00 
       6.457344852562e-03       3.518355345911e+00 
       6.578858521367e-03       3.559969171156e+00 
       6.700483443346e-03       3.600751694102e+00 
       6.822214455222e-03       3.640707378704e+00 
       6.944046746129e-03       3.679843627271e+00 
       7.065975830168e-03       3.718167476981e+00 
       7.187997521452e-03       3.755684041201e+00 
       7.310107911398e-03       3.792403792673e+00 
       7.432303348035e-03       3.828333867087e+00 
       7.554580417124e-03       3.863482133122e+00 
       7.676935924931e-03       3.897855213760e+00 
       7.799366882465e-03       3.931463742194e+00 
       7.921870491067e-03       3.964316496503e+00 
       8.044444129208e-03       3.996421990696e+00 
       8.167085340379e-03       4.027789637197e+00 
       8.289791821990e-03       4.058427504575e+00 
       8.412561415158e-03       4.088346429607e+00 
       8.535392095331e-03       4.117554775224e+00 
       8.658281963652e-03       4.146061542822e+00 
       8.781229239010e-03       4.173875218395e+00 
       8.904232250708e-03       4.201007639559e+00 
       9.027289431704e-03       4.227465447271e+00 
       9.150399312368e-03       4.253257858564e+00 
       9.273560514714e-03       4.278394659186e+00 
       9.396771747065e-03       4.302884215388e+00 
       9.520031799123e-03       4.326734805879e+00 
       9.643339537395e-03       4.349956325528e+00 
       9.766693900965e-03       4.372554890110e+00 
       9.890093897566e-03       4.394541328708e+00 
       1.001353859994e-02       4.415923702594e+00 
       1.013702714247e-02       4.436707758313e+00 
       1.026055871802e-02       4.456902887543e+00 
       1.038413257505e-02       4.476516387699e+00 
       1.050774801489e-02       4.495559111828e+00 
       1.063140438921e-02       4.514031718968e+00 
       1.075510109773e-02       4.531949454200e+00 
       1.087883758598e-02       4.549314439086e+00 
       1.100261334330e-02       4.566133418809e+00 
       1.112642790095e-02       4.582415088359e+00 
       1.125028083038e-02       4.598166764231e+00 
       1.137417174154e-02       4.613393887374e+00 
       1.149810028141e-02       4.628104824404e+00 
       1.162206613256e-02       4.642302617053e+00 
       1.174606901183e-02       4.655997080079e+00 
       1.187010866910e-02       4.669192929262e+00 
       1.199418488617e-02       4.681896999276e+00 
       1.211829747567e-02       4.694113749004e+00 
       1.224244628010e-02       4.705851468548e+00 
       1.236663117090e-02       4.717115246814e+00 
       1.249085204757e-02       4.727908403830e+00 
       1.261510883696e-02       4.738240458640e+00 
       1.273940149246e-02       4.748113499488e+00 
       1.286372999336e-02       4.757537510049e+00 
       1.298809434421e-02       4.766513167479e+00 
       1.311249457428e-02       4.775049818566e+00 
       1.323693073698e-02       4.783149860919e+00 
       1.336140290942e-02       4.790820740561e+00 
       1.348591119193e-02       4.798068210406e+00 
       1.361045570765e-02       4.804897245565e+00 
       1.373503660222e-02       4.811309474313e+00 
       1.385965404336e-02       4.817315474828e+00 
       1.398430822064e-02       4.822916171994e+00 
       1.410899934517e-02       4.828120381350e+00 
       1.423372764937e-02       4.832928908477e+00 
       1.435849338678e-02       4.837351790305e+00 
       1.448329683185e-02       4.841388203255e+00 
       1.460813827981e-02       4.845048763785e+00 
       1.473301804651e-02       4.848336927579e+00 
       1.485793646835e-02       4.851254283643e+00 
       1.498289390217e-02       4.853808929042e+00 
       1.510789072521e-02       4.856007030659e+00 
       1.523292733507e-02       4.857849455438e+00 
       1.535800414968e-02       4.859342271932e+00 
       1.548312160735e-02       4.860493983157e+00 
       1.560828016672e-02       4.861306694443e+00 
       1.573348030688e-02       4.861780447981e+00 
       1.585872252741e-02       4.861925422138e+00 
       1.598400734844e-02       4.861746621278e+00 
       1.610933531079e-02       4.861244700361e+00 
       1.623470697605e-02       4.860432334518e+00 
       1.636012292677e-02       4.859304458163e+00 
       1.648558376655e-02       4.857867363068e+00 
       1.661109012028e-02       4.856132835977e+00 
       1.673664263428e-02       4.854097378158e+00 
       1.686224197652e-02       4.851770707157e+00 
       1.698788883685e-02       4.849155186705e+00 
       1.711358392725e-02       4.846251310993e+00 
       1.723932798205e-02       4.843070262581e+00 
       1.736512175823e-02       4.839611245051e+00 
       1.749096603570e-02       4.835880624577e+00 
       1.761686161762e-02       4.831879775989e+00 
       1.774280933070e-02       4.827623609925e+00 
       1.786881002554e-02       4.823099350904e+00 
       1.799486457700e-02       4.818327347205e+00 
       1.812097388457e-02       4.813296429691e+00 
       1.824713887274e-02       4.808022875930e+00 
       1.837336049141e-02       4.802505726375e+00 
       1.849963971633e-02       4.796749582191e+00 
       1.862597754953e-02       4.790755608488e+00 
       1.875237501977e-02       4.784531936368e+00 
       1.887883318301e-02       4.778079442871e+00 
       1.900535312294e-02       4.771406963126e+00 
       1.913193595143e-02       4.764510669805e+00 
       1.925858280911e-02       4.757400490253e+00 
       1.938529486592e-02       4.750073558855e+00 
       1.951207332163e-02       4.742541005198e+00 
       1.963891940648e-02       4.734800133907e+00 
       1.976583438176e-02       4.726866232653e+00 
       1.989281954046e-02       4.718722721919e+00 
       2.001987620788e-02       4.710388846650e+00 
       2.014700574237e-02       4.701867495367e+00 
       2.027420953594e-02       4.693153842528e+00 
       2.040148901504e-02       4.684257457506e+00 
       2.052884564128e-02       4.675183646579e+00 
       2.065628091220e-02       4.665926111755e+00 
       2.078379636203e-02       4.656499924353e+00 
       2.091139356253e-02       4.646901682684e+00 
       2.103907412384e-02       4.637128657180e+00 
       2.116683969530e-02       4.627202543003e+00 
       2.129469196640e-02       4.617104629612e+00 
       2.142263266765e-02       4.606848583344e+00 
       2.155066357157e-02       4.596450333339e+00 
       2.167878649364e-02       4.585900321244e+00 
       2.180700329333e-02       4.575187787416e+00 
       2.193531587513e-02       4.564340716398e+00 
       2.206372618964e-02       4.553343951958e+00 
       2.219223623466e-02       4.542218252085e+00 
       2.232084805636e-02       4.530948189050e+00 
       2.244956375042e-02       4.519546511222e+00 
       2.257838546331e-02       4.508010746774e+00 
       2.270731539347e-02       4.496355493716e+00 
       2.283635579267e-02       4.484571402846e+00 
       2.296550896730e-02       4.472665201564e+00 
       2.309477727980e-02       4.460641599173e+00 
       2.322416315002e-02       4.448510236914e+00 
       2.335366905675e-02       4.436250053295e+00 
       2.348329753921e-02       4.423885582901e+00 
       2.361305119861e-02       4.411410359205e+00 
       2.374293269977e-02       4.398840984598e+00 
       2.387294477280e-02       4.386156284178e+00 
       2.400309021484e-02       4.373373755656e+00 
       2.413337189178e-02       4.360503057551e+00 
       2.426379274017e-02       4.347535139426e+00 
       2.439435576908e-02       4.334465234191e+00 
       2.452506406208e-02       4.321315557285e+00 
       2.465592077927e-02       4.308072713396e+00 
       2.478692915937e-02       4.294756386603e+00 
       2.491809252189e-02       4.281344554324e+00 
       2.504941426942e-02       4.267852213527e+00 
       2.518089788986e-02       4.254293463135e+00 
       2.531254695892e-02       4.240655787071e+00 
       2.544436514254e-02       4.226948121274e+00 
       2.557635619949e-02       4.213155689229e+00 
       2.570852398403e-02       4.199312829391e+00 
       2.584087244865e-02       4.185401229585e+00 
       2.597340564696e-02       4.171410230448e+00 
       2.610612773662e-02       4.157373304410e+00 
       2.623904298241e-02       4.143269641424e+00 
       2.637215575941e-02       4.129109474760e+00 
       2.650547055630e-02       4.114896516142e+00 
       2.663899197875e-02       4.100622573627e+00 
       2.677272475300e-02       4.086307837515e+00 
       2.690667372948e-02       4.071941329262e+00 
       2.704084388668e-02       4.057516893915e+00 
       2.717524033506e-02       4.043053355091e+00 
       2.730986832117e-02       4.028555357330e+00 
       2.744473323193e-02       4.014007839225e+00 
       2.757984059904e-02       3.999407460081e+00 
       2.771519610360e-02       3.984783552480e+00 
       2.785080558089e-02       3.970130104487e+00 
       2.798667502534e-02       3.955419962674e+00 
       2.812281059571e-02       3.940691211643e+00 
       2.825921862046e-02       3.925922611747e+00 
       2.839590560337e-02       3.911137831046e+00 
       2.853287822937e-02       3.896314843922e+00 
       2.867014337060e-02       3.881460108174e+00 
       2.880770809274e-02       3.866590104820e+00 
       2.894557966159e-02       3.851686785607e+00 
       2.908376554997e-02       3.836776224938e+00 
       2.922227344485e-02       3.821834741503e+00 
       2.936111125486e-02       3.806874820109e+00 
       2.950028711803e-02       3.791900252118e+00 
       2.963980940998e-02       3.776901532637e+00 
       2.977968675242e-02       3.761887751943e+00 
       2.991992802197e-02       3.746864317924e+00 
       3.006054235952e-02       3.731831584201e+00 
       3.020153917986e-02       3.716780745117e+00 
       3.034292818185e-02       3.701725824978e+00 
       3.048471935906e-02       3.686658258219e+00 
       3.062692301082e-02       3.671570762464e+00 
       3.076954975391e-02       3.656502186422e+00 
       3.091261053472e-02       3.641415817806e+00 
       3.105611664203e-02       3.626324710788e+00 
       3.120007972039e-02       3.611230490165e+00 
       3.134451178417e-02       3.596118435835e+00 
       3.148942523232e-02       3.581021930859e+00 
       3.163483286384e-02       3.565923676022e+00 
       3.178074789403e-02       3.550828831617e+00 
       3.192718397158e-02       3.535721370487e+00 
       3.207415519655e-02       3.520625072661e+00 
       3.222167613928e-02       3.505534317692e+00 
       3.236976186026e-02       3.490438558576e+00 
       3.251842793110e-02       3.475366890524e+00 
       3.266769045662e-02       3.460257675029e+00 
       3.281756609808e-02       3.445203905324e+00 
       3.296807209781e-02       3.430126913097e+00 
       3.311922630503e-02       3.415051077510e+00 
       3.327104720329e-02       3.400001323234e+00 
       3.342355393934e-02       3.384960832378e+00 
       3.357676635374e-02       3.369906881513e+00 
       3.373070501315e-02       3.354887812134e+00 
       3.388539124463e-02       3.339869136193e+00 
       3.404084717188e-02       3.324857891648e+00 
       3.419709575366e-02       3.309853062400e+00 
       3.435416082463e-02       3.294872020884e+00 
       3.451206713858e-02       3.279879384198e+00 
       3.467084041444e-02       3.264913965536e+00 
       3.483050738512e-02       3.249953887491e+00 
       3.499109584951e-02       3.235006914346e+00 
       3.515263472782e-02       3.220085327695e+00 
       3.531515412053e-02       3.205171112700e+00 
       3.547868537122e-02       3.190256037640e+00 
       3.564326113364e-02       3.175360181162e+00 
       3.580891544335e-02       3.160473727099e+00 
       3.597568379423e-02       3.145601620799e+00 
       3.614360322038e-02       3.130745185016e+00 
       3.631271238380e-02       3.115888688715e+00 
       3.648305166828e-02       3.101044673343e+00 
       3.665466328025e-02       3.086226565544e+00 
       3.682759135694e-02       3.071418787045e+00 
       3.700188208264e-02       3.056612981628e+00 
       3.717758381384e-02       3.041820709418e+00 
       3.735474721393e-02       3.027040418453e+00 
       3.753342539844e-02       3.012253716466e+00 
       3.771367409180e-02       2.997489008348e+00 
       3.789555179669e-02       2.982740625153e+00 
       3.807911997726e-02       2.967986135605e+00 
       3.826444325751e-02       2.953251611752e+00 
       3.845158963647e-02       2.938518159837e+00 
       3.864063072175e-02       2.923791858511e+00 
       3.883164198345e-02       2.909067979032e+00 
       3.902470303062e-02       2.894344940959e+00 
       3.921989791253e-02       2.879627231310e+00 
       3.941731544758e-02       2.864909005035e+00 
       3.961704958289e-02       2.850190674924e+00 
       3.981919978798e-02       2.835476274049e+00 
       4.002387148648e-02       2.820759110103e+00 
       4.023117653032e-02       2.806037907917e+00 
       4.044123372141e-02       2.791307328791e+00 
       4.065416938658e-02       2.776573192048e+00 
       4.087011801240e-02       2.761831621051e+00 
       4.108922294733e-02       2.747078736317e+00 
       4.131163717982e-02       2.732309353669e+00 
       4.153752420241e-02       2.717524588631e+00 
       4.176705897322e-02       2.702730922079e+00 
       4.200042898802e-02       2.687909597736e+00 
       4.223783547839e-02       2.673073211975e+00 
       4.247949475379e-02       2.658208311375e+00 
       4.272563970839e-02       2.643314267237e+00 
       4.297652151713e-02       2.628378527772e+00 
       4.323241154967e-02       2.613423216574e+00 
       4.349360353592e-02       2.598430163533e+00 
       4.376041602319e-02       2.583385643454e+00 
       4.403319517213e-02       2.568298629392e+00 
       4.431231794788e-02       2.553159026671e+00 
       4.459819577357e-02       2.537961131669e+00 
       4.489127872701e-02       2.522700196084e+00 
       4.519206037738e-02       2.507365154036e+00 
       4.550108337953e-02       2.491964539307e+00 
       4.581894596815e-02       2.476474299429e+00 
       4.614630952536e-02       2.460904978672e+00 
       4.648390743429e-02       2.445214071709e+00 
       4.683255547970e-02       2.429432564938e+00 
       4.719316411816e-02       2.413520144087e+00 
       4.756675301773e-02       2.397482844072e+00 
       4.795446836503e-02       2.381313401032e+00 
       4.835760356241e-02       2.364993752827e+00 
       4.877762409663e-02       2.348480905173e+00 
       4.921619756285e-02       2.331755298226e+00 
       4.967523008562e-02       2.314815868984e+00 
       5.015691070604e-02       2.297620601377e+00 
       5.066376571717e-02       2.280141187824e+00 
       5.119872544391e-02       2.262338003395e+00 
       5.176520658853e-02       2.244176545944e+00 
       5.236721399178e-02       2.225590100789e+00 
       5.300946644312e-02       2.206503764641e+00 
       5.369755187007e-02       2.186838155613e+00 
       5.443811751592e-02       2.166481766626e+00 
       5.523909986870e-02       2.145292411758e+00 
       5.610999570581e-02       2.123080366033e+00 
       5.706216694303e-02       2.099593239428e+00 
       5.810915312358e-02       2.074514206747e+00 
