# dimensionless total [l(l+1)/2pi] C_l's
# for l=2 to 3000, i.e. number of multipoles equal to 2999
#
# -> if you prefer output in CAMB/HealPix/LensPix units/order, set 'format' to 'camb' in input file
# -> if you don't want to see such a header, set 'headers' to 'no' in input file
# -> for CMB lensing (phi), these are C_l^phi-phi for the lensing potential.
#    Remember the conversion factors:
#    C_l^dd (deflection) = l(l+1) C_l^phi-phi
#    C_l^gg (shear/convergence) = 1/4 (l(l+1))^2 C_l^phi-phi
#
# 1:l     2:TT                     3:EE                     4:TE                     5:BB                     6:phiphi                 7:TPhi                   8:Ephi               
    2       1.513649267006e-10       4.793936453600e-15       3.799557309808e-13       0.000000000000e+00       8.309173858264e-09       5.059238044643e-10      -2.012670012542e-12 
    3       1.417609494323e-10       6.054178712759e-15       4.281305476693e-13       0.000000000000e+00       5.129975278510e-09       3.573162032045e-10      -1.512229780754e-12 
    4       1.331014383039e-10       5.148247584527e-15       3.998153055761e-13       0.000000000000e+00       3.573542725468e-09       2.695875889919e-10      -9.768013099982e-13 
    5       1.266643681274e-10       3.372232549290e-15       3.391770514450e-13       0.000000000000e+00       2.668847536730e-09       2.123196655735e-10      -5.310333638255e-13 
    6       1.222138836437e-10       1.855002475209e-15       2.715900817700e-13       0.000000000000e+00       2.084772853960e-09       1.723405632004e-10      -2.072597756315e-13 
    7       1.192628610509e-10       9.971102593176e-16       2.117256375207e-13       0.000000000000e+00       1.680710530819e-09       1.430969339042e-10      -5.087569425767e-15 
    8       1.174528179059e-10       6.484255573469e-16       1.659103998761e-13       0.000000000000e+00       1.387263653674e-09       1.209817208462e-10       9.391129864527e-14 
    9       1.164852683932e-10       5.208490005853e-16       1.354213405125e-13       0.000000000000e+00       1.166764304205e-09       1.038441732845e-10       1.170803153053e-13 
   10       1.161126039182e-10       4.388837346188e-16       1.186574471188e-13       0.000000000000e+00       9.966841832984e-10       9.028417836497e-11       9.395969025856e-14 
   11       1.162386627122e-10       3.648922389622e-16       1.125868729895e-13       0.000000000000e+00       8.432903440614e-10       7.968947369968e-11       5.145241826401e-14 
   12       1.167175219092e-10       3.172061999406e-16       1.137835979333e-13       0.000000000000e+00       7.367571780753e-10       7.043956833859e-11       8.505538757535e-15 
   13       1.174794582633e-10       3.043825301068e-16       1.192738486246e-13       0.000000000000e+00       6.493031157951e-10       6.289667925563e-11      -2.257405935560e-14 
   14       1.184516148543e-10       3.151953665551e-16       1.268740477461e-13       0.000000000000e+00       5.765407327822e-10       5.631016635928e-11      -3.807997460705e-14 
   15       1.196315950762e-10       3.376270729511e-16       1.351658132348e-13       0.000000000000e+00       5.152940540413e-10       5.077343957350e-11      -3.911788867846e-14 
   16       1.209596660843e-10       3.710820555870e-16       1.435449780466e-13       0.000000000000e+00       4.632209195861e-10       4.602348393701e-11      -3.059051009696e-14 
   17       1.224257083903e-10       4.221899850249e-16       1.519133904924e-13       0.000000000000e+00       4.185519108770e-10       4.189523978879e-11      -1.835749484435e-14 
   18       1.239815644727e-10       4.958869038189e-16       1.605115010349e-13       0.000000000000e+00       3.797836939074e-10       3.827274520726e-11      -7.624942873752e-15 
   19       1.256387800454e-10       5.919267138746e-16       1.695801166176e-13       0.000000000000e+00       3.462978827635e-10       3.511625072391e-11      -8.588749178464e-16 
   20       1.273762462850e-10       7.077637531940e-16       1.792994938190e-13       0.000000000000e+00       3.168068004472e-10       3.233182440865e-11       6.140654232557e-16 
   21       1.292001572194e-10       8.427935918510e-16       1.896230911515e-13       0.000000000000e+00       2.908472305386e-10       2.986811568015e-11      -2.208150320797e-15 
   22       1.310920030814e-10       9.966671092482e-16       2.003289707178e-13       0.000000000000e+00       2.677972790385e-10       2.764870497912e-11      -7.116074940095e-15 
   23       1.330498319211e-10       1.169151466442e-15       2.109777047055e-13       0.000000000000e+00       2.473400865272e-10       2.565089584254e-11      -1.224143039420e-14 
   24       1.350566378054e-10       1.359969797164e-15       2.210263132959e-13       0.000000000000e+00       2.290031227966e-10       2.384695680730e-11      -1.576007314373e-14 
   25       1.371232969530e-10       1.569667413716e-15       2.302040137521e-13       0.000000000000e+00       2.125706587610e-10       2.222939159545e-11      -1.704099845792e-14 
   26       1.392503918917e-10       1.799254954953e-15       2.383352929442e-13       0.000000000000e+00       1.977451316625e-10       2.077858114909e-11      -1.603206715547e-14 
   27       1.414237372115e-10       2.050789509448e-15       2.453525703993e-13       0.000000000000e+00       1.843485823441e-10       1.946618341860e-11      -1.354574030373e-14 
   28       1.436165052174e-10       2.326642875950e-15       2.512504000614e-13       0.000000000000e+00       1.721499688169e-10       1.825419133151e-11      -1.074022332471e-14 
   29       1.458388634952e-10       2.628261607554e-15       2.560942812872e-13       0.000000000000e+00       1.610869266276e-10       1.714145425208e-11      -8.251306537393e-15 
   30       1.481018213862e-10       2.956789476788e-15       2.600075752053e-13       0.000000000000e+00       1.510406142255e-10       1.612978901494e-11      -6.645642534502e-15 
   31       1.504053738280e-10       3.313300017970e-15       2.631154461210e-13       0.000000000000e+00       1.418060599422e-10       1.521143218262e-11      -6.413979853748e-15 
   32       1.527519174796e-10       3.698712233389e-15       2.653622402415e-13       0.000000000000e+00       1.333354977205e-10       1.437593551753e-11      -7.275711235616e-15 
   33       1.551350134373e-10       4.113828778395e-15       2.666244818555e-13       0.000000000000e+00       1.255689444218e-10       1.360388654588e-11      -8.597244831208e-15 
   34       1.575413966143e-10       4.559405643394e-15       2.667608965440e-13       0.000000000000e+00       1.183976291867e-10       1.287224875010e-11      -9.698921795578e-15 
   35       1.599755071135e-10       5.036350350791e-15       2.656292222930e-13       0.000000000000e+00       1.117847878848e-10       1.218295544457e-11      -1.034763486070e-14 
   36       1.624417759983e-10       5.545584948065e-15       2.630725690429e-13       0.000000000000e+00       1.056773175158e-10       1.154349270768e-11      -1.042993661627e-14 
   37       1.649396428812e-10       6.087976824255e-15       2.589474029371e-13       0.000000000000e+00       9.999567646321e-11       1.095819632055e-11      -9.880145652279e-15 
   38       1.674715704139e-10       6.664291897727e-15       2.532398249412e-13       0.000000000000e+00       9.472513881568e-11       1.042518468383e-11      -8.880076517660e-15 
   39       1.700364477587e-10       7.275219022785e-15       2.459884032405e-13       0.000000000000e+00       8.984893896169e-11       9.937856637733e-12      -7.730141024580e-15 
   40       1.726266071816e-10       7.921376784768e-15       2.372548424513e-13       0.000000000000e+00       8.532051472927e-11       9.485260438990e-12      -6.801715281058e-15 
   41       1.752321563437e-10       8.603356222642e-15       2.271010502009e-13       0.000000000000e+00       8.107971572672e-11       9.055395600025e-12      -6.434767130473e-15 
   42       1.778572450282e-10       9.321876488706e-15       2.155079896258e-13       0.000000000000e+00       7.711402098689e-11       8.647259547991e-12      -6.579770883594e-15 
   43       1.805079919318e-10       1.007767232382e-14       2.024327690982e-13       0.000000000000e+00       7.341287591868e-11       8.262128523540e-12      -7.046846541110e-15 
   44       1.831876486650e-10       1.087145001928e-14       1.878304301181e-13       0.000000000000e+00       6.994932352991e-11       7.900141460728e-12      -7.599831251847e-15 
   45       1.858972978920e-10       1.170384962201e-14       1.716544531824e-13       0.000000000000e+00       6.668962312133e-11       7.560577867947e-12      -8.012309807296e-15 
   46       1.886389326655e-10       1.257532101870e-14       1.538591048086e-13       0.000000000000e+00       6.362861179049e-11       7.243029966820e-12      -8.262331741283e-15 
   47       1.914127663951e-10       1.348620868160e-14       1.343973236475e-13       0.000000000000e+00       6.076269400033e-11       6.946408144550e-12      -8.391106371953e-15 
   48       1.942160547464e-10       1.443678173199e-14       1.132197756308e-13       0.000000000000e+00       5.807917645944e-11       6.668514212395e-12      -8.449756442920e-15 
   49       1.970428414995e-10       1.542723058679e-14       9.027462353006e-14       0.000000000000e+00       5.555559180384e-11       6.405961656776e-12      -8.499885352807e-15 
   50       1.998867182548e-10       1.645769483837e-14       6.551365202868e-14       0.000000000000e+00       5.316645776256e-11       6.155159867515e-12      -8.600135014605e-15 
   51       2.027505762688e-10       1.752836359558e-14       3.891313758916e-14       0.000000000000e+00       5.090728664545e-11       5.915766793044e-12      -8.760241976226e-15 
   52       2.056390623436e-10       1.863939658254e-14       1.045824514269e-14       0.000000000000e+00       4.877592390196e-11       5.688035618572e-12      -8.975490844256e-15 
   53       2.085556866808e-10       1.979089344687e-14      -1.986276529723e-14       0.000000000000e+00       4.676536356772e-11       5.471803724257e-12      -9.239543832792e-15 
   54       2.115027105674e-10       2.098289187606e-14      -5.205846999364e-14       0.000000000000e+00       4.486342185143e-11       5.266463005829e-12      -9.544348728506e-15 
   55       2.144814505182e-10       2.221538004710e-14      -8.613481017312e-14       0.000000000000e+00       4.305644885773e-11       5.071220836005e-12      -9.879698403289e-15 
   56       2.174935364826e-10       2.348834191243e-14      -1.220969891373e-13       0.000000000000e+00       4.134229131244e-11       4.886026857584e-12      -1.023199205411e-14 
   57       2.205397694763e-10       2.480171986464e-14      -1.599479262040e-13       0.000000000000e+00       3.971997831839e-11       4.710824439885e-12      -1.058500502211e-14 
   58       2.236196385130e-10       2.615540009249e-14      -1.996876562893e-13       0.000000000000e+00       3.818579995247e-11       4.545262253556e-12      -1.092010697083e-14 
   59       2.267312245163e-10       2.754921125568e-14      -2.413132845381e-13       0.000000000000e+00       3.673313818249e-11       4.388675914865e-12      -1.121615627518e-14 
   60       2.298711042305e-10       2.898292315969e-14      -2.848189409561e-13       0.000000000000e+00       3.535229778410e-11       4.240069629977e-12      -1.144939441044e-14 
   61       2.330358087659e-10       3.045619475576e-14      -3.301965931674e-13       0.000000000000e+00       3.403319491281e-11       4.098388627091e-12      -1.159902550608e-14 
   62       2.362267991815e-10       3.196840749952e-14      -3.774388005071e-13       0.000000000000e+00       3.277451053530e-11       3.963449436486e-12      -1.166565742014e-14 
   63       2.394464422969e-10       3.351879206610e-14      -4.265365004200e-13       0.000000000000e+00       3.157630089339e-11       3.835186799566e-12      -1.165683139119e-14 
   64       2.426965087751e-10       3.510647284932e-14      -4.774781871030e-13       0.000000000000e+00       3.043724429069e-11       3.713372358516e-12      -1.158177542682e-14 
   65       2.459781263615e-10       3.673046502858e-14      -5.302498933633e-13       0.000000000000e+00       2.935456268069e-11       3.597605527061e-12      -1.145147907866e-14 
   66       2.492917331222e-10       3.838967163581e-14      -5.848351724784e-13       0.000000000000e+00       2.832394325488e-11       3.487304361231e-12      -1.127876821730e-14 
   67       2.526370306834e-10       4.008288062239e-14      -6.412150800541e-13       0.000000000000e+00       2.733946003087e-11       3.381696430124e-12      -1.107837980732e-14 
   68       2.560135264150e-10       4.180887337947e-14      -6.993681473273e-13       0.000000000000e+00       2.639515411477e-11       3.280021604940e-12      -1.086441634549e-14 
   69       2.594223920786e-10       4.356678238950e-14      -7.592703353402e-13       0.000000000000e+00       2.549032158822e-11       3.182208547675e-12      -1.064194307580e-14 
   70       2.628648995176e-10       4.535580110823e-14      -8.208950388483e-13       0.000000000000e+00       2.462516114700e-11       3.088319526498e-12      -1.041381465508e-14 
   71       2.663418339039e-10       4.717507884217e-14      -8.842130760254e-13       0.000000000000e+00       2.379917488420e-11       2.998346982933e-12      -1.018315246176e-14 
   72       2.698534620393e-10       4.902372066604e-14      -9.491926701039e-13       0.000000000000e+00       2.301113229971e-11       2.912209822529e-12      -9.953352354527e-15 
   73       2.733995006575e-10       5.090078734016e-14      -1.015799431015e-12       0.000000000000e+00       2.225903430967e-11       2.829749705529e-12      -9.728092431079e-15 
   74       2.769790847246e-10       5.280529522784e-14      -1.083996337028e-12       0.000000000000e+00       2.154007725592e-11       2.750727337535e-12      -9.511340786751e-15 
   75       2.805907357413e-10       5.473621621277e-14      -1.153743716393e-12       0.000000000000e+00       2.085061691547e-11       2.674818760180e-12      -9.307363273229e-15 
   76       2.842330162256e-10       5.669243224539e-14      -1.225000779930e-12       0.000000000000e+00       2.018707163943e-11       2.601699651975e-12      -9.119960732491e-15 
   77       2.879067010192e-10       5.867258959553e-14      -1.297730582043e-12       0.000000000000e+00       1.954890146258e-11       2.531324177989e-12      -8.950002965534e-15 
   78       2.916129461790e-10       6.067521774846e-14      -1.371895935219e-12       0.000000000000e+00       1.893610938523e-11       2.463690486891e-12      -8.797457077646e-15 
   79       2.953526205790e-10       6.269877142155e-14      -1.447457952558e-12       0.000000000000e+00       1.834833397573e-11       2.398755338040e-12      -8.662110197677e-15 
   80       2.991262882818e-10       6.474162955124e-14      -1.524376061219e-12       0.000000000000e+00       1.778483263759e-11       2.336432196874e-12      -8.543561436492e-15 
   81       3.029341909114e-10       6.680209428013e-14      -1.602608015860e-12       0.000000000000e+00       1.724446487651e-11       2.276589330294e-12      -8.441213845423e-15 
   82       3.067762300247e-10       6.887838994393e-14      -1.682109912085e-12       0.000000000000e+00       1.672567556746e-11       2.219047902054e-12      -8.354266374723e-15 
   83       3.106519494839e-10       7.096866205858e-14      -1.762836199884e-12       0.000000000000e+00       1.622647822172e-11       2.163580068154e-12      -8.281705832021e-15 
   84       3.145608329353e-10       7.307103733091e-14      -1.844739075528e-12       0.000000000000e+00       1.574493680388e-11       2.109964032416e-12      -8.222267468365e-15 
   85       3.185032915208e-10       7.518381734059e-14      -1.927766511962e-12       0.000000000000e+00       1.528073961034e-11       2.058163872031e-12      -8.174326843763e-15 
   86       3.224798083494e-10       7.730531525860e-14      -2.011863925019e-12       0.000000000000e+00       1.483385684065e-11       2.008176169877e-12      -8.135975208111e-15 
   87       3.264906257988e-10       7.943379769079e-14      -2.096974768900e-12       0.000000000000e+00       1.440405701517e-11       1.959974771550e-12      -8.105040837232e-15 
   88       3.305357331840e-10       8.156748469047e-14      -2.183040539166e-12       0.000000000000e+00       1.399089862114e-11       1.913509838067e-12      -8.079080464054e-15 
   89       3.346148544243e-10       8.370454977110e-14      -2.270000775741e-12       0.000000000000e+00       1.359372175875e-11       1.868706898572e-12      -8.055370709803e-15 
   90       3.387274357123e-10       8.584311991885e-14      -2.357793065904e-12       0.000000000000e+00       1.321163978717e-11       1.825465903032e-12      -8.030899515183e-15 
   91       3.428726331814e-10       8.798127560530e-14      -2.446353047293e-12       0.000000000000e+00       1.284353097061e-11       1.783660274946e-12      -8.002357571564e-15 
   92       3.470493005740e-10       9.011705080006e-14      -2.535614410893e-12       0.000000000000e+00       1.248803012439e-11       1.743135964042e-12      -7.966129752169e-15 
   93       3.512563343006e-10       9.224846592422e-14      -2.625510113295e-12       0.000000000000e+00       1.214385189195e-11       1.703749775472e-12      -7.919149722976e-15 
   94       3.554937947680e-10       9.437363235286e-14      -2.715976215480e-12       0.000000000000e+00       1.181083433854e-11       1.665493009217e-12      -7.861629417085e-15 
   95       3.597619316834e-10       9.649066372620e-14      -2.806948629614e-12       0.000000000000e+00       1.148903759881e-11       1.628384751123e-12      -7.794726140753e-15 
   96       3.640608343631e-10       9.859764486783e-14      -2.898361980574e-12       0.000000000000e+00       1.117842248024e-11       1.592433850612e-12      -7.719719207160e-15 
   97       3.683904243064e-10       1.006926322495e-13      -2.990149625542e-12       0.000000000000e+00       1.087884666145e-11       1.557638512525e-12      -7.638013216321e-15 
   98       3.727504477695e-10       1.027736544557e-13      -3.082243673606e-12       0.000000000000e+00       1.059006089049e-11       1.523985888970e-12      -7.551141334999e-15 
   99       3.771404683394e-10       1.048387126491e-13      -3.174575005354e-12       0.000000000000e+00       1.031170518311e-11       1.491451671162e-12      -7.460768576618e-15 
  100       3.815598595078e-10       1.068857810347e-13      -3.267073292472e-12       0.000000000000e+00       1.004330502111e-11       1.459999681272e-12      -7.368695081171e-15 
  101       3.860077972448e-10       1.089128073247e-13      -3.359667017337e-12       0.000000000000e+00       9.784267550620e-12       1.429581464266e-12      -7.276859395140e-15 
  102       3.904832525729e-10       1.109177132038e-13      -3.452283492620e-12       0.000000000000e+00       9.533877780386e-12       1.400135879755e-12      -7.187341751400e-15 
  103       3.949849841411e-10       1.128983947935e-13      -3.544848880877e-12       0.000000000000e+00       9.291294780082e-12       1.371588693836e-12      -7.102367349135e-15 
  104       3.995117954257e-10       1.148527742196e-13      -3.637288778408e-12       0.000000000000e+00       9.055741939210e-12       1.343869517393e-12      -7.023822306452e-15 
  105       4.040633618993e-10       1.167789612461e-13      -3.729530014450e-12       0.000000000000e+00       8.827115202677e-12       1.316966105983e-12      -6.951719984973e-15 
  106       4.086395022763e-10       1.186751144436e-13      -3.821499132691e-12       0.000000000000e+00       8.605450294020e-12       1.290876668306e-12      -6.885532638270e-15 
  107       4.132399193997e-10       1.205393930508e-13      -3.913121874205e-12       0.000000000000e+00       8.390734342877e-12       1.265592959848e-12      -6.824658188241e-15 
