# Matter power spectrum P(k) at redshift z=99
# for k=1.00899e-05 to 203.102 h/Mpc,
# number of wavenumbers equal to 845
#    1:k (h/Mpc)              2:P (Mpc/h)^3        
       1.008985923385e-05       8.602951769979e-03 
       2.251775554930e-05       1.859263791817e-02 
       3.498636120606e-05       2.838298524726e-02 
       4.752690065129e-05       3.808682244950e-02 
       6.017107953816e-05       4.776633731253e-02 
       7.295134796828e-05       5.746688772561e-02 
       8.590117159567e-05       6.722642559465e-02 
       9.905531396721e-05       7.707932398107e-02 
       1.124501335013e-04       8.705830431280e-02 
       1.261238985365e-04       9.719558012745e-02 
       1.401171238971e-04       1.075236289114e-01 
       1.544729323969e-04       1.180757708272e-01 
       1.692374446017e-04       1.288866576398e-01 
       1.844601999509e-04       1.399926991208e-01 
       2.001946119308e-04       1.514324717919e-01 
       2.164984593225e-04       1.632471158778e-01 
       2.334344144963e-04       1.754807333243e-01 
       2.510706081659e-04       1.881807937974e-01 
       2.694812277618e-04       2.013985393657e-01 
       2.887471434300e-04       2.151894059095e-01 
       3.089565513521e-04       2.296134314934e-01 
       3.302056183397e-04       2.447356516041e-01 
       3.525991041884e-04       2.606264730553e-01 
       3.762509288441e-04       2.773619800970e-01 
       4.012846398935e-04       2.950241670238e-01 
       4.278337223492e-04       3.137010395079e-01 
       4.560416776520e-04       3.334865342032e-01 
       4.860617833901e-04       3.544802094802e-01 
       5.180564314341e-04       3.767866175423e-01 
       5.521959331310e-04       4.005143022095e-01 
       5.886566802046e-04       4.257743487585e-01 
       6.276185644258e-04       4.526784043707e-01 
       6.692615935926e-04       4.813361715931e-01 
       7.137617004578e-04       5.118523639487e-01 
       7.612858262925e-04       5.443231936687e-01 
       8.119864673565e-04       5.788325432052e-01 
       8.659959883789e-04       6.154480627470e-01 
       9.234211117495e-04       6.542174457731e-01 
       9.843380585498e-04       6.951652604562e-01 
       1.048788822721e-03       7.382906192279e-01 
       1.116778987109e-03       7.835660106842e-01 
       1.188277341859e-03       8.309373954206e-01 
       1.263217364320e-03       8.803258234475e-01 
       1.341500404014e-03       9.316384027767e-01 
       1.423000230117e-03       9.847482670314e-01 
       1.507568477514e-03       1.039519928666e+00 
       1.595040487398e-03       1.095807211713e+00 
       1.685241075052e-03       1.153457446611e+00 
       1.777989849946e-03       1.212315253929e+00 
       1.873105833493e-03       1.272225821792e+00 
       1.970411241375e-03       1.333037601442e+00 
       2.069734401352e-03       1.394604272603e+00 
       2.170911854437e-03       1.456786269678e+00 
       2.273789735608e-03       1.519451763163e+00 
       2.378224553543e-03       1.582477070542e+00 
       2.484083493407e-03       1.645747020955e+00 
       2.591244358870e-03       1.709154639252e+00 
       2.699595254824e-03       1.772601420407e+00 
       2.809034094888e-03       1.835996407871e+00 
       2.919468000394e-03       1.899256257069e+00 
       3.030812641761e-03       1.962304412252e+00 
       3.142991559685e-03       2.025071213989e+00 
       3.255935492585e-03       2.087492516371e+00 
       3.369581728141e-03       2.149510188337e+00 
       3.483873490193e-03       2.211071062307e+00 
       3.598759367421e-03       2.272127384804e+00 
       3.714192786759e-03       2.332634786545e+00 
       3.830131532053e-03       2.392554044748e+00 
       3.946537306880e-03       2.451848816097e+00 
       4.063375339396e-03       2.510487472395e+00 
       4.180614026477e-03       2.568440167114e+00 
       4.298224614140e-03       2.625681752497e+00 
       4.416180911106e-03       2.682188769470e+00 
       4.534459032436e-03       2.737940270250e+00 
       4.653037170281e-03       2.792918673410e+00 
       4.771895388998e-03       2.847107607806e+00 
       4.891015442065e-03       2.900494249633e+00 
       5.010380608463e-03       2.953066487315e+00 
       5.129975546421e-03       3.004813662550e+00 
       5.249786162607e-03       3.055728838325e+00 
       5.369799495068e-03       3.105804642826e+00 
       5.490003608392e-03       3.155037267536e+00 
       5.610387499743e-03       3.203422395835e+00 
       5.730941014549e-03       3.250957301532e+00 
       5.851654770797e-03       3.297641281805e+00 
       5.972520090970e-03       3.343475023229e+00 
       6.093528940795e-03       3.388458776668e+00 
       6.214673874059e-03       3.432594721711e+00 
       6.335947982840e-03       3.475886210416e+00 
       6.457344852562e-03       3.518335663832e+00 
       6.578858521367e-03       3.559949256292e+00 
       6.700483443346e-03       3.600731551102e+00 
       6.822214455222e-03       3.640687012196e+00 
       6.944046746129e-03       3.679823041839e+00 
       7.065975830168e-03       3.718146677170e+00 
       7.187997521452e-03       3.755663031556e+00 
       7.310107911398e-03       3.792382577546e+00 
       7.432303348035e-03       3.828312451023e+00 
       7.554580417124e-03       3.863460520446e+00 
       7.676935924931e-03       3.897833408808e+00 
       7.799366882465e-03       3.931441749244e+00 
       7.921870491067e-03       3.964294319785e+00 
       8.044444129208e-03       3.996399634382e+00 
       8.167085340379e-03       4.027767105585e+00 
       8.289791821990e-03       4.058404801435e+00 
       8.412561415158e-03       4.088323559013e+00 
       8.535392095331e-03       4.117531741351e+00 
       8.658281963652e-03       4.146038349496e+00 
       8.781229239010e-03       4.173851869495e+00 
       8.904232250708e-03       4.200984138898e+00 
       9.027289431704e-03       4.227441798622e+00 
       9.150399312368e-03       4.253234065433e+00 
       9.273560514714e-03       4.278370725676e+00 
       9.396771747065e-03       4.302860145596e+00 
       9.520031799123e-03       4.326710601995e+00 
       9.643339537395e-03       4.349931991765e+00 
       9.766693900965e-03       4.372530435462e+00 
       9.890093897566e-03       4.394516745603e+00 
       1.001353859994e-02       4.415898999883e+00 
       1.013702714247e-02       4.436682937163e+00 
       1.026055871802e-02       4.456877956518e+00 
       1.038413257505e-02       4.476491351369e+00 
       1.050774801489e-02       4.495533963745e+00 
       1.063140438921e-02       4.514006455733e+00 
       1.075510109773e-02       4.531924102599e+00 
       1.087883758598e-02       4.549288990390e+00 
       1.100261334330e-02       4.566107876069e+00 
       1.112642790095e-02       4.582389454584e+00 
       1.125028083038e-02       4.598141042368e+00 
       1.137417174154e-02       4.613368084021e+00 
       1.149810028141e-02       4.628078933559e+00 
       1.162206613256e-02       4.642276748304e+00 
       1.174606901183e-02       4.655971034859e+00 
       1.187010866910e-02       4.669166810281e+00 
       1.199418488617e-02       4.681870809277e+00 
       1.211829747567e-02       4.694087490708e+00 
       1.224244628010e-02       4.705825144639e+00 
       1.236663117090e-02       4.717088057965e+00 
       1.249085204757e-02       4.727881956619e+00 
       1.261510883696e-02       4.738213953793e+00 
       1.273940149246e-02       4.748086939368e+00 
       1.286372999336e-02       4.757510897196e+00 
       1.298809434421e-02       4.766487744447e+00 
       1.311249457428e-02       4.775023108054e+00 
       1.323693073698e-02       4.783123104810e+00 
       1.336140290942e-02       4.790793942085e+00 
       1.348591119193e-02       4.798041371195e+00 
       1.361045570765e-02       4.804868949688e+00 
       1.373503660222e-02       4.811282561144e+00 
       1.385965404336e-02       4.817288056235e+00 
       1.398430822064e-02       4.822889489544e+00 
       1.410899934517e-02       4.828093374433e+00 
       1.423372764937e-02       4.832901874664e+00 
       1.435849338678e-02       4.837324731704e+00 
       1.448329683185e-02       4.841362481168e+00 
       1.460813827981e-02       4.845021662390e+00 
       1.473301804651e-02       4.848308102715e+00 
       1.485793646835e-02       4.851228615303e+00 
       1.498289390217e-02       4.853781778895e+00 
       1.510789072521e-02       4.855978802000e+00 
       1.523292733507e-02       4.857822282864e+00 
       1.535800414968e-02       4.859315091095e+00 
       1.548312160735e-02       4.860466795966e+00 
       1.560828016672e-02       4.861279502799e+00 
       1.573348030688e-02       4.861753253782e+00 
       1.585872252741e-02       4.861898227221e+00 
       1.598400734844e-02       4.861719427458e+00 
       1.610933531079e-02       4.861217509447e+00 
       1.623470697605e-02       4.860402895223e+00 
       1.636012292677e-02       4.859277650166e+00 
       1.648558376655e-02       4.857841985040e+00 
       1.661109012028e-02       4.856105718716e+00 
       1.673664263428e-02       4.854070227756e+00 
       1.686224197652e-02       4.851743569884e+00 
       1.698788883685e-02       4.849128064176e+00 
       1.711358392725e-02       4.846224204827e+00 
       1.723932798205e-02       4.843043174326e+00 
       1.736512175823e-02       4.839582382412e+00 
       1.749096603570e-02       4.835853576786e+00 
       1.761686161762e-02       4.831852779200e+00 
       1.774280933070e-02       4.827596626006e+00 
       1.786881002554e-02       4.823072374984e+00 
       1.799486457700e-02       4.818298600778e+00 
       1.812097388457e-02       4.813272493113e+00 
       1.824713887274e-02       4.807996103686e+00 
       1.837336049141e-02       4.802478937422e+00 
       1.849963971633e-02       4.796723833729e+00 
       1.862597754953e-02       4.790728942838e+00 
       1.875237501977e-02       4.784503934788e+00 
       1.887883318301e-02       4.778052719890e+00 
       1.900535312294e-02       4.771376853630e+00 
       1.913193595143e-02       4.764484023027e+00 
       1.925858280911e-02       4.757373883409e+00 
       1.938529486592e-02       4.750046993155e+00 
       1.951207332163e-02       4.742514481793e+00 
       1.963891940648e-02       4.734773653967e+00 
       1.976583438176e-02       4.726835139767e+00 
       1.989281954046e-02       4.718696332230e+00 
       2.001987620788e-02       4.710361272630e+00 
       2.014700574237e-02       4.701841200299e+00 
       2.027420953594e-02       4.693127632402e+00 
       2.040148901504e-02       4.684231261280e+00 
       2.052884564128e-02       4.675157501294e+00 
       2.065628091220e-02       4.665900018433e+00 
       2.078379636203e-02       4.656473883954e+00 
       2.091139356253e-02       4.646875696143e+00 
       2.103907412384e-02       4.637102725501e+00 
       2.116683969530e-02       4.627176667024e+00 
       2.129469196640e-02       4.617082294778e+00 
       2.142263266765e-02       4.606822821618e+00 
       2.155066357157e-02       4.596423671852e+00 
       2.167878649364e-02       4.585874677087e+00 
       2.180700329333e-02       4.575162203384e+00 
       2.193531587513e-02       4.564315193249e+00 
       2.206372618964e-02       4.553318490520e+00 
       2.219223623466e-02       4.542192853098e+00 
       2.232084805636e-02       4.530922853309e+00 
       2.244956375042e-02       4.519521239478e+00 
       2.257838546331e-02       4.507984608172e+00 
       2.270731539347e-02       4.496330352127e+00 
       2.283635579267e-02       4.484546327363e+00 
       2.296550896730e-02       4.472630885198e+00 
       2.309477727980e-02       4.460616658026e+00 
       2.322416315002e-02       4.448485363827e+00 
       2.335366905675e-02       4.436225249053e+00 
       2.348329753921e-02       4.423860848050e+00 
       2.361305119861e-02       4.411385694375e+00 
       2.374293269977e-02       4.398807359823e+00 
       2.387294477280e-02       4.386132784037e+00 
       2.400309021484e-02       4.373349304305e+00 
       2.413337189178e-02       4.360478678441e+00 
       2.426379274017e-02       4.347510833120e+00 
       2.439435576908e-02       4.334441001233e+00 
       2.452506406208e-02       4.321291398140e+00 
       2.465592077927e-02       4.308048628581e+00 
       2.478692915937e-02       4.294732831806e+00 
       2.491809252189e-02       4.281320619537e+00 
       2.504941426942e-02       4.267828354433e+00 
       2.518089788986e-02       4.254269680205e+00 
       2.531254695892e-02       4.240632080665e+00 
       2.544436514254e-02       4.226924491925e+00 
       2.557635619949e-02       4.213147013899e+00 
       2.570852398403e-02       4.199294106790e+00 
       2.584087244865e-02       4.185377833410e+00 
       2.597340564696e-02       4.171386912761e+00 
       2.610612773662e-02       4.157350065591e+00 
       2.623904298241e-02       4.143246481737e+00 
       2.637215575941e-02       4.129086394586e+00 
       2.650547055630e-02       4.114876982521e+00 
       2.663899197875e-02       4.100599653374e+00 
       2.677272475300e-02       4.086284997633e+00 
       2.690667372948e-02       4.071917223327e+00 
       2.704084388668e-02       4.057494215674e+00 
       2.717524033506e-02       4.043032230913e+00 
       2.730986832117e-02       4.028532841236e+00 
       2.744473323193e-02       4.013973596882e+00 
       2.757984059904e-02       3.999385114405e+00 
       2.771519610360e-02       3.984761446605e+00 
       2.785080558089e-02       3.970107917020e+00 
       2.798667502534e-02       3.955397857715e+00 
       2.812281059571e-02       3.940673663882e+00 
       2.825921862046e-02       3.925900672489e+00 
       2.839590560337e-02       3.911115974867e+00 
       2.853287822937e-02       3.896292585501e+00 
       2.867014337060e-02       3.881445835824e+00 
       2.880770809274e-02       3.866568498996e+00 
       2.894557966159e-02       3.851665263268e+00 
       2.908376554997e-02       3.836754786917e+00 
       2.922227344485e-02       3.821813386658e+00 
       2.936111125486e-02       3.806848669337e+00 
       2.950028711803e-02       3.791879065699e+00 
       2.963980940998e-02       3.776880429813e+00 
       2.977968675242e-02       3.761866734009e+00 
       2.991992802197e-02       3.746843383573e+00 
       3.006054235952e-02       3.731810735129e+00 
       3.020153917986e-02       3.716760001040e+00 
       3.034292818185e-02       3.701702927611e+00 
       3.048471935906e-02       3.686631545184e+00 
       3.062692301082e-02       3.671549126005e+00 
       3.076954975391e-02       3.656481760169e+00 
       3.091261053472e-02       3.641395469816e+00 
       3.105611664203e-02       3.626304372945e+00 
       3.120007972039e-02       3.611197695642e+00 
       3.134451178417e-02       3.596098344850e+00 
       3.148942523232e-02       3.581001933570e+00 
       3.163483286384e-02       3.565903764439e+00 
       3.178074789403e-02       3.550808999650e+00 
       3.192718397158e-02       3.535701177339e+00 
       3.207415519655e-02       3.520605351667e+00 
       3.222167613928e-02       3.505507659842e+00 
       3.236976186026e-02       3.490415181664e+00 
       3.251842793110e-02       3.475347530692e+00 
       3.266769045662e-02       3.460240206404e+00 
       3.281756609808e-02       3.445184671019e+00 
       3.296807209781e-02       3.430107790910e+00 
       3.311922630503e-02       3.415036384989e+00 
       3.327104720329e-02       3.399994544955e+00 
       3.342355393934e-02       3.384937096619e+00 
       3.357676635374e-02       3.369898584876e+00 
       3.373070501315e-02       3.354869016697e+00 
       3.388539124463e-02       3.339849450112e+00 
       3.404084717188e-02       3.324839352637e+00 
       3.419709575366e-02       3.309836689072e+00 
       3.435416082463e-02       3.294846783936e+00 
       3.451206713858e-02       3.279879676328e+00 
       3.467084041444e-02       3.264908771690e+00 
       3.483050738512e-02       3.249937662750e+00 
       3.499109584951e-02       3.234988872299e+00 
       3.515263472782e-02       3.220073020842e+00 
       3.531515412053e-02       3.205146930873e+00 
       3.547868537122e-02       3.190238233450e+00 
       3.564326113364e-02       3.175342395557e+00 
       3.580891544335e-02       3.160456091061e+00 
       3.597568379423e-02       3.145578569891e+00 
       3.614360322038e-02       3.130727678754e+00 
       3.631271238380e-02       3.115871303244e+00 
       3.648305166828e-02       3.101027352599e+00 
       3.665466328025e-02       3.086209346788e+00 
       3.682759135694e-02       3.071401847763e+00 
       3.700188208264e-02       3.056595662117e+00 
       3.717758381384e-02       3.041803721341e+00 
       3.735474721393e-02       3.027022548345e+00 
       3.753342539844e-02       3.012237252772e+00 
       3.771367409180e-02       2.997472289121e+00 
       3.789555179669e-02       2.982722049892e+00 
       3.807911997726e-02       2.967969518495e+00 
       3.826444325751e-02       2.953235142222e+00 
       3.845158963647e-02       2.938496784705e+00 
       3.864063072175e-02       2.923775555527e+00 
       3.883164198345e-02       2.909048471587e+00 
       3.902470303062e-02       2.894328799870e+00 
       3.921989791253e-02       2.879611176824e+00 
       3.941731544758e-02       2.864893033445e+00 
       3.961704958289e-02       2.850175416893e+00 
       3.981919978798e-02       2.835460468795e+00 
       4.002387148648e-02       2.820743387601e+00 
       4.023117653032e-02       2.806022268078e+00 
       4.044123372141e-02       2.791291767536e+00 
       4.065416938658e-02       2.776557719281e+00 
       4.087011801240e-02       2.761816117789e+00 
       4.108922294733e-02       2.747060760676e+00 
       4.131163717982e-02       2.732290575266e+00 
       4.153752420241e-02       2.717509470250e+00 
       4.176705897322e-02       2.702715877314e+00 
       4.200042898802e-02       2.687893758596e+00 
       4.223783547839e-02       2.673058323290e+00 
       4.247949475379e-02       2.658189975666e+00 
       4.272563970839e-02       2.643299546339e+00 
       4.297652151713e-02       2.628376507513e+00 
       4.323241154967e-02       2.613408662210e+00 
       4.349360353592e-02       2.598415649302e+00 
       4.376041602319e-02       2.583371294605e+00 
       4.403319517213e-02       2.568283422718e+00 
       4.431231794788e-02       2.553144817510e+00 
       4.459819577357e-02       2.537947007140e+00 
       4.489127872701e-02       2.522686158166e+00 
       4.519206037738e-02       2.507351549245e+00 
       4.550108337953e-02       2.491950675456e+00 
       4.581894596815e-02       2.476471494345e+00 
       4.614630952536e-02       2.460891290635e+00 
       4.648390743429e-02       2.445200475365e+00 
       4.683255547970e-02       2.429419008378e+00 
       4.719316411816e-02       2.413506739182e+00 
       4.756675301773e-02       2.397469508964e+00 
       4.795446836503e-02       2.381300148733e+00 
       4.835760356241e-02       2.364980547050e+00 
       4.877762409663e-02       2.348467299286e+00 
       4.921619756285e-02       2.331752438120e+00 
       4.967523008562e-02       2.314802951954e+00 
       5.015691070604e-02       2.297607761066e+00 
       5.066376571717e-02       2.280133864097e+00 
       5.119872544391e-02       2.262325361076e+00 
       5.176520658853e-02       2.244164005784e+00 
       5.236721399178e-02       2.225577664642e+00 
       5.300946644312e-02       2.206493800365e+00 
       5.369755187007e-02       2.186825948754e+00 
       5.443811751592e-02       2.166469662211e+00 
       5.523909986870e-02       2.145281243486e+00 
       5.610999570581e-02       2.123068501796e+00 
       5.706216694303e-02       2.099581504037e+00 
       5.810915312358e-02       2.074502623919e+00 
