# dimensionless total lensed [l(l+1)/2pi] C_l's
# for l=2 to 2500, i.e. number of multipoles equal to 2499
#
# -> if you prefer output in CAMB/HealPix/LensPix units/order, set 'format' to 'camb' in input file
# -> if you don't want to see such a header, set 'headers' to 'no' in input file
# -> for CMB lensing (phi), these are C_l^phi-phi for the lensing potential.
#    Remember the conversion factors:
#    C_l^dd (deflection) = l(l+1) C_l^phi-phi
#    C_l^gg (shear/convergence) = 1/4 (l(l+1))^2 C_l^phi-phi
#
# 1:l     2:TT                     3:EE                     4:TE                     5:BB                     6:phiphi                 7:TPhi                   8:Ephi               
    2       1.513637775103e-10       4.794146814995e-15       3.799555903104e-13       2.253185887907e-19       8.308904399419e-09       5.059096496151e-10      -2.012651340019e-12 
    3       1.417612442759e-10       6.054602927882e-15       4.281333440813e-13       4.507370961842e-19       5.129787232839e-09       3.573051887425e-10      -1.512212517219e-12 
    4       1.331023596738e-10       5.148955583537e-15       3.998153872633e-13       7.514484373213e-19       3.573400768593e-09       2.695789228784e-10      -9.767884017941e-13 
    5       1.266657084065e-10       3.373321116178e-15       3.391741013312e-13       1.127580061538e-18       2.668735113183e-09       2.123125795793e-10      -5.310264508624e-13 
    6       1.222158562234e-10       1.856554382385e-15       2.715861617735e-13       1.579286455752e-18       2.084680574218e-09       1.723345193612e-10      -2.072578131217e-13 
    7       1.192659277426e-10       9.991965013842e-16       2.117214156861e-13       2.106746150770e-18       1.680633175830e-09       1.430916229204e-10      -5.088509204864e-15 
    8       1.174571393568e-10       6.511181771720e-16       1.659059547414e-13       2.710158341131e-18       1.387197593417e-09       1.209769776434e-10       9.390930338767e-14 
    9       1.164909316839e-10       5.242228862025e-16       1.354166767779e-13       3.389739221328e-18       1.166706609266e-09       1.038398672684e-10       1.170784893120e-13 
   10       1.161198497909e-10       4.430149349682e-16       1.186520801331e-13       4.145718148345e-18       9.966330625472e-10       9.028019654625e-11       9.395862298600e-14 
   11       1.162475490494e-10       3.698568023850e-16       1.125804429097e-13       4.978333743583e-18       8.432444708171e-10       7.968572209780e-11       5.145219075907e-14 
   12       1.167281665383e-10       3.230796965493e-16       1.137758021369e-13       5.887830046407e-18       7.367159484462e-10       7.043616031105e-11       8.505979908463e-15 
   13       1.174919707697e-10       3.112406533109e-16       1.192643801746e-13       6.874452826754e-18       6.492657237853e-10       6.289361427976e-11      -2.257326956361e-14 
   14       1.184660469400e-10       3.231142577672e-16       1.268625892963e-13       7.938446155727e-18       5.765067718691e-10       5.630730366083e-11      -3.807909485281e-14 
   15       1.196480151986e-10       3.466835814248e-16       1.351520304934e-13       9.080049321183e-18       5.152630144078e-10       5.077074813140e-11      -3.911711336403e-14 
   16       1.209782695225e-10       3.813531721136e-16       1.435287129100e-13       1.029949416057e-17       4.631924068454e-10       4.602104259410e-11      -3.058989640464e-14 
   17       1.224465252995e-10       4.337521202343e-16       1.518942940591e-13       1.159700286610e-17       4.185256707067e-10       4.189306186448e-11      -1.835701991782e-14 
   18       1.240047516971e-10       5.088172617651e-16       1.604892971237e-13       1.297278609029e-17       3.797594863992e-10       3.827071591127e-11      -7.624502998035e-15 
   19       1.256644634189e-10       6.063022725930e-16       1.695544468074e-13       1.442704282716e-17       3.462754734805e-10       3.511432149003e-11      -8.584000948960e-16 
   20       1.274044399497e-10       7.236608283406e-16       1.792698415897e-13       1.595995746544e-17       3.167860115386e-10       3.233007436785e-11       6.145666355647e-16 
   21       1.292309252448e-10       8.602888467623e-16       1.895889985182e-13       1.757170285596e-17       2.908279079837e-10       2.986656650758e-11      -2.207631363111e-15 
   22       1.311255062786e-10       1.015837858846e-15       2.002901108564e-13       1.926243706199e-17       2.677793025927e-10       2.764726900453e-11      -7.115523573176e-15 
   23       1.330861999743e-10       1.190074937037e-15       2.109337465317e-13       2.103230795464e-17       2.473233399393e-10       2.564951673673e-11      -1.224084115002e-14 
   24       1.350959302728e-10       1.382722789803e-15       2.209768682256e-13       2.288144990946e-17       2.289874978720e-10       2.384565480662e-11      -1.575946500500e-14 
   25       1.371655704338e-10       1.594326139623e-15       2.301486223151e-13       2.480999017788e-17       2.125560531291e-10       2.222819315288e-11      -1.704042155647e-14 
   26       1.392957218818e-10       1.825895026612e-15       2.382734319242e-13       2.681804490213e-17       1.977314574696e-10       2.077749594498e-11      -1.603159346697e-14 
   27       1.414722045957e-10       2.079486537835e-15       2.452837474706e-13       2.890572515956e-17       1.843357603705e-10       1.946520981839e-11      -1.354539184322e-14 
   28       1.436681921112e-10       2.357472562374e-15       2.511741727048e-13       3.107313425039e-17       1.721379318856e-10       1.825331641454e-11      -1.073995151296e-14 
   29       1.458938497083e-10       2.661299089273e-15       2.560101581342e-13       3.332037717796e-17       1.610756091193e-10       1.714065128312e-11      -8.251048248444e-15 
   30       1.481601831017e-10       2.992109017519e-15       2.599149731165e-13       3.564755297213e-17       1.510299551980e-10       1.612901486261e-11      -6.645339360866e-15 
   31       1.504671830112e-10       3.350975018436e-15       2.630137036905e-13       3.805475464943e-17       1.417960086591e-10       1.521063476980e-11      -6.413586108310e-15 
   32       1.528172406667e-10       3.738815876062e-15       2.652507500935e-13       4.054208062857e-17       1.333260066485e-10       1.437509679688e-11      -7.275215622068e-15 
   33       1.552039108220e-10       4.156434284894e-15       2.665027512581e-13       4.310962758533e-17       1.255599711969e-10       1.360304458193e-11      -8.596684850301e-15 
   34       1.576139231245e-10       4.604586180387e-15       2.666285432688e-13       4.575748898152e-17       1.183891397003e-10       1.287149172731e-11      -9.698378098803e-15 
   35       1.600517200374e-10       5.084178250064e-15       2.654858439943e-13       4.848575992920e-17       1.117767500054e-10       1.218234650734e-11      -1.034716529162e-14 
   36       1.625217384923e-10       5.596131364244e-15       2.629176942529e-13       5.129453433059e-17       1.056697015308e-10       1.154303899010e-11      -1.042954871091e-14 
   37       1.650234239357e-10       6.141311670497e-15       2.587805017052e-13       5.418390268391e-17       9.998845671391e-11       1.095784979666e-11      -9.879797209617e-15 
   38       1.675592381319e-10       6.720484148961e-15       2.530604141988e-13       5.715394822307e-17       9.471828992344e-11       1.042489297627e-11      -8.879720990022e-15 
   39       1.701280671477e-10       7.334336766452e-15       2.457960891865e-13       6.020474975472e-17       8.984243603966e-11       9.937580131635e-12      -7.729742647220e-15 
   40       1.727222396888e-10       7.983487172387e-15       2.370493389578e-13       6.333638283909e-17       8.531433525642e-11       9.484976387523e-12      -6.801252507418e-15 
   41       1.753318593073e-10       8.668525606873e-15       2.268821718847e-13       6.654891603235e-17       8.107384045432e-11       9.055098785824e-12      -6.434233668583e-15 
   42       1.779610709319e-10       9.390171190741e-15       2.152755564258e-13       6.984239786945e-17       7.710843116068e-11       8.646950575164e-12      -6.579168022969e-15 
   43       1.806159877301e-10       1.014915897480e-14       2.021865723405e-13       7.321686583487e-17       7.340755326791e-11       8.261810934713e-12      -7.046181755613e-15 
   44       1.832998551113e-10       1.094619574547e-14       1.875702217677e-13       7.667234971820e-17       6.994425137594e-11       7.899822266668e-12      -7.599119251668e-15 
   45       1.860137497561e-10       1.178192188198e-14       1.713799579986e-13       8.020886707381e-17       6.668478687734e-11       7.560266975218e-12      -8.011571478449e-15 
   46       1.887596620313e-10       1.265678624360e-14       1.535701111240e-13       8.382640834769e-17       6.362399720658e-11       7.242735837589e-12      -8.261585861565e-15 
   47       1.915378037307e-10       1.357113177528e-14       1.340937177671e-13       8.752494703951e-17       6.075828714149e-11       6.946136147701e-12      -8.390366486901e-15 
   48       1.943454291393e-10       1.452522589202e-14       1.129015552295e-13       9.130444330395e-17       5.807496437140e-11       6.668265973245e-12      -8.449029656524e-15 
   49       1.971765809043e-10       1.551925711694e-14       8.994191166966e-14       9.516484354262e-17       5.555156322823e-11       6.405734370965e-12      -8.499171049751e-15 
   50       2.000248496248e-10       1.655336295491e-14       6.516670327233e-14       9.910607999582e-17       5.316260334513e-11       6.154946757913e-12      -8.599425542945e-15 
   51       2.028931252658e-10       1.762773023319e-14       3.855231643867e-14       1.031280703340e-16       5.090359734718e-11       5.915561444535e-12      -8.759529997552e-15 
   52       2.057860533784e-10       1.874251618575e-14       1.008402571157e-14       1.072307172500e-16       4.877239080465e-11       5.687833425645e-12      -8.974771707832e-15 
   53       2.087071430822e-10       1.989781775090e-14      -2.024979153089e-14       1.114139080513e-16       4.676197821579e-11       5.471602270948e-12      -9.238816105356e-15 
   54       2.116586547588e-10       2.109366967928e-14      -5.245758621552e-14       1.156775142515e-16       4.486017661685e-11       5.266262465318e-12      -9.543614751073e-15 
   55       2.146419041301e-10       2.233005718457e-14      -8.654517288053e-14       1.200214008591e-16       4.305333706335e-11       5.071023805729e-12      -9.878964105490e-15 
   56       2.176585202385e-10       2.360696191064e-14      -1.225176490725e-13       1.244454578786e-16       4.133930650734e-11       4.885836291649e-12      -1.023126426322e-14 
   57       2.207093032624e-10       2.492432406956e-14      -1.603778321552e-13       1.289495759199e-16       3.971711423109e-11       4.710643045930e-12      -1.058429070235e-14 
   58       2.237937415188e-10       2.628202760264e-14      -2.001256525848e-13       1.335336371582e-16       3.818305070291e-11       4.545092429303e-12      -1.091941317465e-14 
   59       2.269099153798e-10       2.767989885499e-14      -2.417581085887e-13       1.381975153036e-16       3.673049850684e-11       4.388519681557e-12      -1.121549009168e-14 
   60       2.300544011891e-10       2.911770525009e-14      -2.852692208450e-13       1.429410755707e-16       3.534976327236e-11       4.239928562720e-12      -1.144876291073e-14 
   61       2.332237291834e-10       3.059510330523e-14      -3.306508421289e-13       1.477641919102e-16       3.403076200474e-11       4.098263811647e-12      -1.159843545995e-14 
   62       2.364193570343e-10       3.211147204134e-14      -3.778954011505e-13       1.526668032917e-16       3.277217569881e-11       3.963341519421e-12      -1.166511427306e-14 
   63       2.396436472499e-10       3.366603965799e-14      -4.269936969811e-13       1.576488700576e-16       3.157406045885e-11       3.835095960588e-12      -1.165633880890e-14 
   64       2.428983658295e-10       3.525792801812e-14      -4.779340805985e-13       1.627103582839e-16       3.043509452824e-11       3.713298252960e-12      -1.158133504121e-14 
   65       2.461846354874e-10       3.688614971521e-14      -5.307024366942e-13       1.678512402968e-16       2.935249988227e-11       3.597547226211e-12      -1.145109022338e-14 
   66       2.495028888766e-10       3.854960514044e-14      -5.852821654794e-13       1.730714951907e-16       2.832196382105e-11       3.487260290471e-12      -1.127842765338e-14 
   67       2.528528218128e-10       4.024707954987e-14      -6.416541644917e-13       1.783711093455e-16       2.733756056229e-11       3.381664304925e-12      -1.107808143855e-14 
   68       2.562339355160e-10       4.197735178591e-14      -6.997968059114e-13       1.837500846466e-16       2.639333143052e-11       3.279998533960e-12      -1.086415161163e-14 
   69       2.596473954815e-10       4.373955257881e-14      -7.596859038391e-13       1.892084639225e-16       2.548857249661e-11       3.182191681392e-12      -1.064170356112e-14 
   70       2.630944669653e-10       4.553287391141e-14      -8.212947076740e-13       1.947463116151e-16       2.462348242194e-11       3.088306267461e-12      -1.041359291432e-14 
   71       2.665759281483e-10       4.735646371276e-14      -8.845938880372e-13       2.003637072341e-16       2.379756331794e-11       2.998335038634e-12      -1.018294220519e-14 
   72       2.700920384250e-10       4.920942578091e-14      -9.495515184633e-13       2.060607460716e-16       2.300958475822e-11       2.912197260430e-12      -9.953148640554e-15 
   73       2.736425066917e-10       5.109081970567e-14      -1.016133057092e-12       2.118375399168e-16       2.225754779078e-11       2.829735010254e-12      -9.727891866216e-15 
   74       2.772264596342e-10       5.299966079142e-14      -1.084301328362e-12       2.176942177698e-16       2.153864895026e-11       2.750709470224e-12      -9.511141733115e-15 
   75       2.808424100164e-10       5.493491997990e-14      -1.154016504697e-12       2.236309265565e-16       2.084924427009e-11       2.674797219998e-12      -9.307166063473e-15 
   76       2.844889128423e-10       5.689547835694e-14      -1.225237636428e-12       2.296478222092e-16       2.018575235539e-11       2.601674445872e-12      -9.119767460172e-15 
   77       2.881667420815e-10       5.887998126601e-14      -1.297927604092e-12       2.357450394528e-16       1.954763327425e-11       2.531295491086e-12      -8.949815895894e-15 
   78       2.918770551104e-10       6.088695732770e-14      -1.372049040141e-12       2.419227177812e-16       1.893489002282e-11       2.463658601320e-12      -8.797278198787e-15 
   79       2.956207227302e-10       6.291486050347e-14      -1.447562874052e-12       2.481810111108e-16       1.834716119455e-11       2.398720641088e-12      -8.661941180078e-15 
   80       2.993983115606e-10       6.496206908716e-14      -1.524428345771e-12       2.545200882971e-16       1.778370424851e-11       2.336395189362e-12      -8.543403591129e-15 
   81       3.032100664335e-10       6.702688469646e-14      -1.602603019149e-12       2.609401336517e-16       1.724337877786e-11       2.276550635192e-12      -8.441068080490e-15 
   82       3.070558927862e-10       6.910753126440e-14      -1.682042795382e-12       2.674413474593e-16       1.672462977821e-11       2.219008273335e-12      -8.354133150954e-15 
   83       3.109353390555e-10       7.120215403085e-14      -1.762701926452e-12       2.740239464942e-16       1.622547091604e-11       2.163540399874e-12      -8.281585116614e-15 
   84       3.148478918055e-10       7.330887952729e-14      -1.844532416832e-12       2.806881614269e-16       1.574396630927e-11       2.109925323047e-12      -8.222158733557e-15 
   85       3.187939558947e-10       7.542600916579e-14      -1.927482085217e-12       2.874342274158e-16       1.527980428687e-11       2.058127045478e-12      -8.174229210905e-15 
   86       3.227740052748e-10       7.755185604316e-14      -2.011496204615e-12       2.942623928965e-16       1.483295506173e-11       2.008142016369e-12      -8.135887467918e-15 
   87       3.267882725354e-10       7.968468681742e-14      -2.096518088625e-12       3.011729230107e-16       1.440318718503e-11       1.959943930898e-12      -8.104961425502e-15 
   88       3.308367365530e-10       8.182272172444e-14      -2.182489094588e-12       3.081661000714e-16       1.399005919295e-11       1.913482782404e-12      -8.079007436779e-15 
   89       3.349191101411e-10       8.396413459446e-14      -2.269348626751e-12       3.152422240274e-16       1.359291125348e-11       1.868683914566e-12      -8.055301717642e-15 
   90       3.390348276998e-10       8.610705286873e-14      -2.357034139421e-12       3.224016129274e-16       1.321085681315e-11       1.825447073585e-12      -8.030831777320e-15 
   91       3.431830328651e-10       8.824955761609e-14      -2.445481140127e-12       3.296446033852e-16       1.284277424377e-11       1.783645460365e-12      -8.002287848937e-15 
   92       3.473625661589e-10       9.038968354954e-14      -2.534623192774e-12       3.369715510439e-16       1.248729848924e-11       1.743124782698e-12      -7.966054320076e-15 
   93       3.515723121301e-10       9.252545225213e-14      -2.624393135299e-12       3.443828414349e-16       1.214314431508e-11       1.703741635262e-12      -7.919064502915e-15 
   94       3.558123273278e-10       9.465497753480e-14      -2.714726935256e-12       3.518789234127e-16       1.181014981367e-11       1.665487301345e-12      -7.861530615054e-15 
   95       3.600828599303e-10       9.677637602875e-14      -2.805560422651e-12       3.594602816310e-16       1.148837512826e-11       1.628380905130e-12      -7.794610454461e-15 
   96       3.643839980529e-10       9.888773585421e-14      -2.896828146672e-12       3.671274271960e-16       1.117778108363e-11       1.592431340427e-12      -7.719583881714e-15 
   97       3.687156623319e-10       1.009871170928e-13      -2.988463395525e-12       3.748808982729e-16       1.087822538471e-11       1.557636862700e-12      -7.637856101490e-15 
   98       3.730775985093e-10       1.030725522601e-13      -3.080398216259e-12       3.827212606939e-16       1.058945881520e-11       1.523984681100e-12      -7.550960944040e-15 
   99       3.774693700171e-10       1.051420467780e-13      -3.172563434597e-12       3.906491085652e-16       1.031112143621e-11       1.491450550487e-12      -7.460564146677e-15 
  100       3.818903505613e-10       1.071935794472e-13      -3.264888674765e-12       3.986650648740e-16       1.004273878482e-11       1.459998363464e-12      -7.368466635254e-15 
  101       3.863397167065e-10       1.092251029195e-13      -3.357302379322e-12       4.067697820961e-16       9.783718072752e-12       1.429579742401e-12      -7.276607805649e-15 
  102       3.908164404600e-10       1.112345441706e-13      -3.449731828986e-12       4.149639428031e-16       9.533344384945e-12       1.400133631466e-12      -7.187068805246e-15 
  103       3.953192818564e-10       1.132198049720e-13      -3.542103162468e-12       4.232482602694e-16       9.290776878194e-12       1.371585888650e-12      -7.102075814419e-15 
  104       3.998470442967e-10       1.151788134531e-13      -3.634341947789e-12       4.316234556931e-16       9.055239022261e-12       1.343866206687e-12      -7.023515781205e-15 
  105       4.043993958230e-10       1.171096856992e-13      -3.726374941427e-12       4.400901850441e-16       8.826626778683e-12       1.316962357735e-12      -6.951402055178e-15 
  106       4.089761454776e-10       1.190105869654e-13      -3.818128604878e-12       4.486491034201e-16       8.604975873651e-12       1.290872549894e-12      -6.885206635793e-15 
  107       4.135769859812e-10       1.208796835579e-13      -3.909528599967e-12       4.573008878973e-16       8.390273443013e-12       1.265588537750e-12      -6.824327159099e-15 
