# dimensionless total [l(l+1)/2pi] C_l's
# for l=2 to 3000, i.e. number of multipoles equal to 2999
#
# -> if you prefer output in CAMB/HealPix/LensPix units/order, set 'format' to 'camb' in input file
# -> if you don't want to see such a header, set 'headers' to 'no' in input file
# -> for CMB lensing (phi), these are C_l^phi-phi for the lensing potential.
#    Remember the conversion factors:
#    C_l^dd (deflection) = l(l+1) C_l^phi-phi
#    C_l^gg (shear/convergence) = 1/4 (l(l+1))^2 C_l^phi-phi
#
# 1:l     2:TT                     3:EE                     4:TE                     5:BB                     6:phiphi                 7:TPhi                   8:Ephi               
    2       1.513643506657e-10       4.793955017355e-15       3.799582511159e-13       0.000000000000e+00       8.308962221468e-09       5.059131876889e-10      -2.012665415717e-12 
    3       1.417612675068e-10       6.054194523128e-15       4.281363565324e-13       0.000000000000e+00       5.129822845816e-09       3.573076867291e-10      -1.512223089613e-12 
    4       1.331016815120e-10       5.148240130550e-15       3.998182365985e-13       0.000000000000e+00       3.573425524196e-09       2.695808051752e-10      -9.767952300894e-13 
    5       1.266641907290e-10       3.372217107406e-15       3.391765951395e-13       0.000000000000e+00       2.668753562826e-09       2.123140628164e-10      -5.310301638115e-13 
    6       1.222133604297e-10       1.854988045425e-15       2.715883008472e-13       0.000000000000e+00       2.084694968264e-09       1.723357257590e-10      -2.072592627112e-13 
    7       1.192623183274e-10       9.970966794943e-16       2.117233218663e-13       0.000000000000e+00       1.680644798938e-09       1.430926229296e-10      -5.088544673081e-15 
    8       1.174522794146e-10       6.484124547372e-16       1.659078153954e-13       0.000000000000e+00       1.387207219832e-09       1.209778194434e-10       9.390996000639e-14 
    9       1.164846916852e-10       5.208366043196e-16       1.354187107478e-13       0.000000000000e+00       1.166714727614e-09       1.038405912311e-10       1.170793067851e-13 
   10       1.161120979398e-10       4.388719625316e-16       1.186545198547e-13       0.000000000000e+00       9.966400075523e-10       9.028083013841e-11       9.395927771084e-14 
   11       1.162381617998e-10       3.648804882051e-16       1.125835250960e-13       0.000000000000e+00       8.432503505459e-10       7.968627979882e-11       5.145254826459e-14 
   12       1.167170203453e-10       3.171932566318e-16       1.137797655211e-13       0.000000000000e+00       7.367210846332e-10       7.043664807595e-11       8.506038321527e-15 
   13       1.174789514326e-10       3.043670977450e-16       1.192694735694e-13       0.000000000000e+00       6.492702496434e-10       6.289405102527e-11      -2.257342696354e-14 
   14       1.184510414971e-10       3.151762543683e-16       1.268690707609e-13       0.000000000000e+00       5.765107899727e-10       5.630770063663e-11      -3.807936021399e-14 
   15       1.196309129990e-10       3.376034700409e-16       1.351601768980e-13       0.000000000000e+00       5.152666051523e-10       5.077110526061e-11      -3.911738664566e-14 
   16       1.209589672005e-10       3.710530502549e-16       1.435388277900e-13       0.000000000000e+00       4.631956342727e-10       4.602135925062e-11      -3.059011023550e-14 
   17       1.224249193137e-10       4.221539129364e-16       1.519067039716e-13       0.000000000000e+00       4.185285865024e-10       4.189335000071e-11      -1.835714727094e-14 
   18       1.239807455993e-10       4.958427641451e-16       1.605043599325e-13       0.000000000000e+00       3.797621318061e-10       3.827098475690e-11      -7.624556186368e-15 
   19       1.256379630465e-10       5.918731225705e-16       1.695725476713e-13       0.000000000000e+00       3.462778853824e-10       3.511457169960e-11      -8.584085949472e-16 
   20       1.273753504203e-10       7.076985190125e-16       1.792913898682e-13       0.000000000000e+00       3.167882177645e-10       3.233029883071e-11       6.145658992877e-16 
   21       1.291991557593e-10       8.427148057425e-16       1.896144290062e-13       0.000000000000e+00       2.908299331474e-10       2.986676780311e-11      -2.207651948701e-15 
   22       1.310909706281e-10       9.965735065809e-16       2.003198824256e-13       0.000000000000e+00       2.677811670152e-10       2.764746232162e-11      -7.115574470071e-15 
   23       1.330488108254e-10       1.169041731373e-15       2.109683364575e-13       0.000000000000e+00       2.473250617258e-10       2.564970442970e-11      -1.224092366057e-14 
   24       1.350555977602e-10       1.359842275688e-15       2.210167691746e-13       0.000000000000e+00       2.289890918114e-10       2.384582139460e-11      -1.575957263992e-14 
   25       1.371222095296e-10       1.569519992407e-15       2.301943448131e-13       0.000000000000e+00       2.125575325034e-10       2.222833748471e-11      -1.704054037686e-14 
   26       1.392492532602e-10       1.799085112720e-15       2.383255039503e-13       0.000000000000e+00       1.977328334893e-10       2.077763788773e-11      -1.603170431589e-14 
   27       1.414225450466e-10       2.050595005849e-15       2.453427128274e-13       0.000000000000e+00       1.843370430053e-10       1.946535746390e-11      -1.354548373301e-14 
   28       1.436152524523e-10       2.326421911816e-15       2.512405890501e-13       0.000000000000e+00       1.721391294932e-10       1.825345739058e-11      -1.074002581800e-14 
   29       1.458375447665e-10       2.628012187520e-15       2.560845944637e-13       0.000000000000e+00       1.610767296215e-10       1.714077431296e-11      -8.251109727404e-15 
   30       1.481004358734e-10       2.956509149782e-15       2.599980072751e-13       0.000000000000e+00       1.510310056872e-10       1.612911805045e-11      -6.645393458173e-15 
   31       1.504039242600e-10       3.312985945368e-15       2.631059198815e-13       0.000000000000e+00       1.417969947977e-10       1.521072581448e-11      -6.413638560716e-15 
   32       1.527504008049e-10       3.698361866682e-15       2.653527365231e-13       0.000000000000e+00       1.333269337653e-10       1.437518395272e-11      -7.275271016770e-15 
   33       1.551334165275e-10       4.113440168655e-15       2.666150974202e-13       0.000000000000e+00       1.255608442019e-10       1.360313338174e-11      -8.596745765221e-15 
   34       1.575396977954e-10       4.558977400459e-15       2.667518364654e-13       0.000000000000e+00       1.183899627448e-10       1.287158447182e-11      -9.698444759845e-15 
   35       1.599736910269e-10       5.035880891675e-15       2.656206638826e-13       0.000000000000e+00       1.117775269841e-10       1.218244333472e-11      -1.034723626092e-14 
   36       1.624398400012e-10       5.545072201698e-15       2.630646083348e-13       0.000000000000e+00       1.056704359677e-10       1.154313784364e-11      -1.042962085732e-14 
   37       1.649375968729e-10       6.087418215772e-15       2.589400607069e-13       0.000000000000e+00       9.998915157840e-11       1.095794658599e-11      -9.879866048039e-15 
   38       1.674694253964e-10       6.663684678816e-15       2.532331460221e-13       0.000000000000e+00       9.471894808178e-11       1.042498394198e-11      -8.879783288492e-15 
   39       1.700342119986e-10       7.274560365476e-15       2.459824934178e-13       0.000000000000e+00       8.984306024099e-11       9.937662739937e-12      -7.729797542817e-15 
   40       1.726242853068e-10       7.920663782725e-15       2.372498814432e-13       0.000000000000e+00       8.531492792511e-11       9.485049663369e-12      -6.801302060560e-15 
   41       1.752297494022e-10       8.602586084081e-15       2.270972790026e-13       0.000000000000e+00       8.107440359535e-11       9.055163334370e-12      -6.434282590698e-15 
   42       1.778547539616e-10       9.321047378626e-15       2.155056089305e-13       0.000000000000e+00       7.710896669156e-11       8.647007493187e-12      -6.579220515833e-15 
   43       1.805054186401e-10       1.007678376868e-14       2.024318990776e-13       0.000000000000e+00       7.340806303246e-11       8.261861507902e-12      -7.046240358173e-15 
   44       1.831849961496e-10       1.087050315170e-14       1.878310931847e-13       0.000000000000e+00       6.994473703006e-11       7.899867968622e-12      -7.599184444095e-15 
   45       1.858945700438e-10       1.170284709621e-14       1.716565798170e-13       0.000000000000e+00       6.668524984175e-11       7.560309402125e-12      -8.011641771234e-15 
   46       1.886361328397e-10       1.257426578951e-14       1.538626191495e-13       0.000000000000e+00       6.362443886588e-11       7.242776429154e-12      -8.261659569145e-15 
   47       1.914098968493e-10       1.348510360287e-14       1.344021714714e-13       0.000000000000e+00       6.075870885509e-11       6.946176056354e-12      -8.390442279592e-15 
   48       1.942131163984e-10       1.443562946184e-14       1.132259307251e-13       0.000000000000e+00       5.807536741017e-11       6.668305986762e-12      -8.449106652365e-15 
   49       1.970398336709e-10       1.542603348641e-14       9.028209445497e-14       0.000000000000e+00       5.555194870643e-11       6.405774830515e-12      -8.499248911697e-15 
   50       1.998836388549e-10       1.645645488483e-14       6.552248223654e-14       0.000000000000e+00       5.316297219944e-11       6.154987547645e-12      -8.599504443545e-15 
   51       2.027474234662e-10       1.752708235577e-14       3.892338257827e-14       0.000000000000e+00       5.090395048293e-11       5.915602229313e-12      -8.759610131280e-15 
   52       2.056358351311e-10       1.863807513149e-14       1.046996701820e-14       0.000000000000e+00       4.877272911208e-11       5.687873700092e-12      -8.974853142225e-15 
   53       2.085523850305e-10       1.978953226192e-14      -1.984949671418e-14       0.000000000000e+00       4.676230253631e-11       5.471641337298e-12      -9.238898758155e-15 
   54       2.114993355945e-10       2.098149072555e-14      -5.204357599693e-14       0.000000000000e+00       4.486048770696e-11       5.266299410275e-12      -9.543698366228e-15 
   55       2.144780042952e-10       2.221393806222e-14      -8.611820604197e-14       0.000000000000e+00       4.305363558449e-11       5.071057575077e-12      -9.879048252084e-15 
   56       2.174900206868e-10       2.348685827408e-14      -1.220786004366e-13       0.000000000000e+00       4.133959310589e-11       4.885866088807e-12      -1.023134841248e-14 
   57       2.205361849287e-10       2.480019401851e-14      -1.599276948863e-13       0.000000000000e+00       3.971738954660e-11       4.710668485300e-12      -1.058437424394e-14 
   58       2.236159850428e-10       2.615383179089e-14      -1.996655430874e-13       0.000000000000e+00       3.818331534904e-11       4.545113600736e-12      -1.091949541048e-14 
   59       2.267275008197e-10       2.754760060129e-14      -2.412892714583e-13       0.000000000000e+00       3.673075305115e-11       4.388537217672e-12      -1.121557022938e-14 
   60       2.298673077237e-10       2.898127065115e-14      -2.847930338708e-13       0.000000000000e+00       3.535000821488e-11       4.239943709078e-12      -1.144884005705e-14 
   61       2.330319359075e-10       3.045450124176e-14      -3.301688191965e-13       0.000000000000e+00       3.403099777526e-11       4.098278323800e-12      -1.159850868493e-14 
   62       2.362228473401e-10       3.196667382992e-14      -3.774091881738e-13       0.000000000000e+00       3.277240271791e-11       3.963356988670e-12      -1.166518290582e-14 
   63       2.394424104116e-10       3.351701898107e-14      -4.265050733258e-13       0.000000000000e+00       3.157427914746e-11       3.835113587285e-12      -1.165640255374e-14 
   64       2.426923975803e-10       3.510466095493e-14      -4.774449625048e-13       0.000000000000e+00       3.043530529805e-11       3.713318781814e-12      -1.158139402915e-14 
   65       2.459739386204e-10       3.672861477132e-14      -5.302148806825e-13       0.000000000000e+00       2.935270312563e-11       3.597570878868e-12      -1.145114506584e-14 
   66       2.492874738708e-10       3.838778327609e-14      -5.847983717405e-13       0.000000000000e+00       2.832215990024e-11       3.487286695371e-12      -1.127847949786e-14 
   67       2.526327074827e-10       4.008095420695e-14      -6.411764802612e-13       0.000000000000e+00       2.733774979838e-11       3.381692424428e-12      -1.107813202638e-14 
   68       2.560091485796e-10       4.180690877322e-14      -6.993277276177e-13       0.000000000000e+00       2.639351410307e-11       3.280026757284e-12      -1.086420316972e-14 
   69       2.594179665738e-10       4.356477950171e-14      -7.592280753238e-13       0.000000000000e+00       2.548874888026e-11       3.182218460087e-12      -1.064175815226e-14 
   70       2.628604295262e-10       4.535375996199e-14      -8.208509215117e-13       0.000000000000e+00       2.462365279271e-11       3.088330313887e-12      -1.041365222234e-14 
   71       2.663373183497e-10       4.717299958748e-14      -8.841670879481e-13       0.000000000000e+00       2.379772794834e-11       2.998355367182e-12      -1.018300747635e-14 
   72       2.698488950934e-10       4.902160359329e-14      -9.491448016791e-13       0.000000000000e+00       2.300974391218e-11       2.912213230338e-12      -9.953220622579e-15 
   73       2.733948712272e-10       5.089863289416e-14      -1.015749676675e-12       0.000000000000e+00       2.225770171833e-11       2.829746369995e-12      -9.727970745146e-15 
   74       2.769743759256e-10       5.280310402231e-14      -1.083944695474e-12       0.000000000000e+00       2.153879788189e-11       2.750716403486e-12      -9.511227067888e-15 
   75       2.805859243521e-10       5.473398904535e-14      -1.153690190830e-12       0.000000000000e+00       2.084938841094e-11       2.674800393247e-12      -9.307256718266e-15 
   76       2.842280743990e-10       5.669017006560e-14      -1.224945376772e-12       0.000000000000e+00       2.018589188569e-11       2.601674948304e-12      -9.119861678659e-15 
   77       2.879016052765e-10       5.867029332055e-14      -1.297673304700e-12       0.000000000000e+00       1.954776837044e-11       2.531294425593e-12      -8.949911836111e-15 
   78       2.916076804246e-10       6.067288820410e-14      -1.371836781911e-12       0.000000000000e+00       1.893502086137e-11       2.463656963385e-12      -8.797374087694e-15 
   79       2.953471769873e-10       6.269640932783e-14      -1.447396915555e-12       0.000000000000e+00       1.834728794936e-11       2.398719300587e-12      -8.662035332104e-15 
   80       2.991206682145e-10       6.473923550749e-14      -1.524313126054e-12       0.000000000000e+00       1.778382708834e-11       2.336394871708e-12      -8.543494427417e-15 
   81       3.029284058635e-10       6.679966874957e-14      -1.602543160513e-12       0.000000000000e+00       1.724349786352e-11       2.276551901827e-12      -8.441154148862e-15 
   82       3.067703026004e-10       6.887593323784e-14      -1.682043106143e-12       0.000000000000e+00       1.672474525967e-11       2.219011501564e-12      -8.354213146577e-15 
   83       3.106459144019e-10       7.096617431989e-14      -1.762767403677e-12       0.000000000000e+00       1.622558292947e-11       2.163545762048e-12      -8.281657903379e-15 
   84       3.145547346143e-10       7.306851855944e-14      -1.844668241761e-12       0.000000000000e+00       1.574407497735e-11       2.109932797802e-12      -8.222223368499e-15 
   85       3.184971706920e-10       7.518126755172e-14      -1.927693595410e-12       0.000000000000e+00       1.527990973013e-11       2.058136532688e-12      -8.174284976783e-15 
   86       3.224736978688e-10       7.730273452987e-14      -2.011788885455e-12       0.000000000000e+00       1.483305740050e-11       2.008153364459e-12      -8.135933900295e-15 
   87       3.264845497185e-10       7.943118616856e-14      -2.096897571627e-12       0.000000000000e+00       1.440328653802e-11       1.959956932870e-12      -8.104998338348e-15 
   88       3.305297057941e-10       8.156484259691e-14      -2.182961155565e-12       0.000000000000e+00       1.399015567582e-11       1.913497171757e-12      -8.079034948821e-15 
   89       3.346088792681e-10       8.370187741126e-14      -2.269919183829e-12       0.000000000000e+00       1.359300497731e-11       1.868699361109e-12      -8.055320279466e-15 
   90       3.387215045710e-10       8.584041768814e-14      -2.357709250919e-12       0.000000000000e+00       1.321094788287e-11       1.825463179149e-12      -8.030842199215e-15 
   91       3.428667250317e-10       8.797854399702e-14      -2.446267002278e-12       0.000000000000e+00       1.284286275653e-11       1.783661754408e-12      -8.002291329496e-15 
   92       3.470433805166e-10       9.011429041325e-14      -2.535526137316e-12       0.000000000000e+00       1.248738453272e-11       1.743140717801e-12      -7.966052475537e-15 
   93       3.512503560142e-10       9.224567747938e-14      -2.625419623046e-12       0.000000000000e+00       1.214322796804e-11       1.703756609579e-12      -7.919059289821e-15 
   94       3.554877142097e-10       9.437081673213e-14      -2.715883537274e-12       0.000000000000e+00       1.181023115376e-11       1.665500766746e-12      -7.861523912869e-15 
   95       3.597557111888e-10       9.648782199322e-14      -2.806853811687e-12       0.000000000000e+00       1.148845423354e-11       1.628392402397e-12      -7.794603938235e-15 
   96       3.640544433638e-10       9.859477828051e-14      -2.898265092094e-12       0.000000000000e+00       1.117785803186e-11       1.592440508818e-12      -7.719578996904e-15 
   97       3.683838400676e-10       1.006897422732e-13      -2.990050758056e-12       0.000000000000e+00       1.087830025270e-11       1.557643449779e-12      -7.637854038057e-15 
   98       3.727436561479e-10       1.027707427768e-13      -3.082142942517e-12       0.000000000000e+00       1.058953167801e-11       1.523988552826e-12      -7.550962609818e-15 
   99       3.771334645611e-10       1.048357811885e-13      -3.174472551438e-12       0.000000000000e+00       1.031119236639e-11       1.491451701578e-12      -7.460570140016e-15 
  100       3.815526489668e-10       1.068828319622e-13      -3.266969283424e-12       0.000000000000e+00       1.004280785163e-11       1.459996928021e-12      -7.368477216940e-15 
  101       3.860003963217e-10       1.089098430736e-13      -3.359561649356e-12       0.000000000000e+00       9.783785341345e-12       1.429576004801e-12      -7.276622870090e-15 
  102       3.904756894740e-10       1.109147364853e-13      -3.452176992027e-12       0.000000000000e+00       9.533409915502e-12       1.400128037523e-12      -7.187087850941e-15 
  103       3.949772997571e-10       1.128954086122e-13      -3.544741505766e-12       0.000000000000e+00       9.290840725059e-12       1.371579057039e-12      -7.102097913691e-15 
  104       3.995040410496e-10       1.148497817967e-13      -3.637180810636e-12       0.000000000000e+00       9.055301234383e-12       1.343858897282e-12      -7.023539653529e-15 
  105       4.040555869896e-10       1.167759656531e-13      -3.729421721061e-12       0.000000000000e+00       8.826687404288e-12       1.316955303474e-12      -6.951426468760e-15 
  106       4.086317508618e-10       1.186721184873e-13      -3.821390753825e-12       0.000000000000e+00       8.605034961207e-12       1.290866407094e-12      -6.885230524090e-15 
  107       4.132322295114e-10       1.205363992458e-13      -3.913013620257e-12       0.000000000000e+00       8.390331040896e-12       1.265583877919e-12      -6.824349637402e-15 
