# Matter power spectrum P(k) at redshift z=99
# for k=1.00899e-05 to 203.102 h/Mpc,
# number of wavenumbers equal to 845
#    1:k (h/Mpc)              2:P (Mpc/h)^3        
       1.008985923246e-05       4.868254324199e-03 
       2.251775554681e-05       3.993243502330e-02 
       3.498636120247e-05       4.131482848170e-02 
       4.752690064658e-05       4.678310851854e-02 
       6.017107953230e-05       5.236008586170e-02 
       7.295134796122e-05       6.148025575044e-02 
       8.590117158737e-05       6.929596514035e-02 
       9.905531395762e-05       7.683685483407e-02 
       1.124501334903e-04       8.670003020497e-02 
       1.261238985241e-04       9.661850159566e-02 
       1.401171238832e-04       1.067409529196e-01 
       1.544729323814e-04       1.179910215492e-01 
       1.692374445844e-04       1.285078198796e-01 
       1.844601999316e-04       1.399749790382e-01 
       2.001946119095e-04       1.512306119843e-01 
       2.164984592990e-04       1.635545718236e-01 
       2.334344144703e-04       1.759453200205e-01 
       2.510706081373e-04       1.879859163180e-01 
       2.694812277303e-04       2.012317059610e-01 
       2.887471433953e-04       2.151219972698e-01 
       3.089565513139e-04       2.294844725887e-01 
       3.302056182976e-04       2.445075817846e-01 
       3.525991041420e-04       2.604180496264e-01 
       3.762509287930e-04       2.771420545817e-01 
       4.012846398372e-04       2.948538537009e-01 
       4.278337222871e-04       3.135450244711e-01 
       4.560416775835e-04       3.332966877734e-01 
       4.860617833145e-04       3.543217372416e-01 
       5.180564313506e-04       3.765780911296e-01 
       5.521959330390e-04       4.004345276244e-01 
       5.886566801031e-04       4.256864702833e-01 
       6.276185643138e-04       4.525960038847e-01 
       6.692615934693e-04       4.813025633241e-01 
       7.137617003222e-04       5.118006026408e-01 
       7.612858261435e-04       5.442770633966e-01 
       8.119864671933e-04       5.788144881846e-01 
       8.659959882004e-04       6.154270798822e-01 
       9.234211115549e-04       6.541699902705e-01 
       9.843380583383e-04       6.951331890169e-01 
       1.048788822492e-03       7.382603329562e-01 
       1.116778986862e-03       7.835161147702e-01 
       1.188277341593e-03       8.309041058230e-01 
       1.263217364035e-03       8.802986310025e-01 
       1.341500403710e-03       9.316083891447e-01 
       1.423000229794e-03       9.846825925494e-01 
       1.507568477172e-03       1.039490612644e+00 
       1.595040487038e-03       1.095776318403e+00 
       1.685241074673e-03       1.153416993100e+00 
       1.777989849548e-03       1.212276106212e+00 
       1.873105833077e-03       1.272192274040e+00 
       1.970411240942e-03       1.333005605707e+00 
       2.069734400901e-03       1.394563753141e+00 
       2.170911853969e-03       1.456744024725e+00 
       2.273789735124e-03       1.519415062808e+00 
       2.378224553043e-03       1.582432586962e+00 
       2.484083492891e-03       1.645706799903e+00 
       2.591244358339e-03       1.709111364263e+00 
       2.699595254278e-03       1.772555461667e+00 
       2.809034094327e-03       1.835946820608e+00 
       2.919467999818e-03       1.899204588305e+00 
       3.030812641171e-03       1.962256066636e+00 
       3.142991559080e-03       2.025019041148e+00 
       3.255935491967e-03       2.087437584475e+00 
       3.369581727509e-03       2.149455561366e+00 
       3.483873489548e-03       2.211016164324e+00 
       3.598759366763e-03       2.272069698303e+00 
       3.714192786088e-03       2.332575916588e+00 
       3.830131531369e-03       2.392495597622e+00 
       3.946537306183e-03       2.451787121255e+00 
       4.063375338686e-03       2.510425871262e+00 
       4.180614025754e-03       2.568375968556e+00 
       4.298224613405e-03       2.625616693604e+00 
       4.416180910359e-03       2.682122823825e+00 
       4.534459031676e-03       2.737872096816e+00 
       4.653037169509e-03       2.792849259697e+00 
       4.771895388214e-03       2.847037675320e+00 
       4.891015441268e-03       2.900423633962e+00 
       5.010380607654e-03       2.952994812652e+00 
       5.129975545600e-03       3.004741130618e+00 
       5.249786161774e-03       3.055656026640e+00 
       5.369799494223e-03       3.105731877002e+00 
       5.490003607537e-03       3.154964050125e+00 
       5.610387498875e-03       3.203346944788e+00 
       5.730941013670e-03       3.250881673379e+00 
       5.851654769906e-03       3.297566662321e+00 
       5.972520090068e-03       3.343399632370e+00 
       6.093528939880e-03       3.388383075742e+00 
       6.214673873133e-03       3.432518693472e+00 
       6.335947981903e-03       3.475811446698e+00 
       6.457344851613e-03       3.518262125045e+00 
       6.578858520406e-03       3.559875234378e+00 
       6.700483442374e-03       3.600655396929e+00 
       6.822214454238e-03       3.640611217354e+00 
       6.944046745134e-03       3.679744753050e+00 
       7.065975829162e-03       3.718067630966e+00 
       7.187997520434e-03       3.755587580078e+00 
       7.310107910369e-03       3.792308124450e+00 
       7.432303346994e-03       3.828234040881e+00 
       7.554580416073e-03       3.863380071702e+00 
       7.676935923868e-03       3.897756308464e+00 
       7.799366881390e-03       3.931364606638e+00 
       7.921870489981e-03       3.964211589669e+00 
       8.044444128110e-03       3.996319052884e+00 
       8.167085339271e-03       4.027684557795e+00 
       8.289791820870e-03       4.058322335001e+00 
       8.412561414027e-03       4.088244451539e+00 
       8.535392094189e-03       4.117449721843e+00 
       8.658281962499e-03       4.145956319916e+00 
       8.781229237845e-03       4.173770002219e+00 
       8.904232249532e-03       4.200902053139e+00 
       9.027289430517e-03       4.227359630157e+00 
       9.150399311170e-03       4.253150168803e+00 
       9.273560513504e-03       4.278290483124e+00 
       9.396771745844e-03       4.302779582985e+00 
       9.520031797891e-03       4.326625969169e+00 
       9.643339536152e-03       4.349852554222e+00 
       9.766693899711e-03       4.372448783957e+00 
       9.890093896300e-03       4.394433851341e+00 
       1.001353859866e-02       4.415816034796e+00 
       1.013702714118e-02       4.436604637240e+00 
       1.026055871672e-02       4.456797643863e+00 
       1.038413257374e-02       4.476410924098e+00 
       1.050774801356e-02       4.495453084813e+00 
       1.063140438788e-02       4.513924192235e+00 
       1.075510109639e-02       4.531840855966e+00 
       1.087883758462e-02       4.549206554046e+00 
       1.100261334193e-02       4.566024886602e+00 
       1.112642789957e-02       4.582308556467e+00 
       1.125028082899e-02       4.598057855054e+00 
       1.137417174014e-02       4.613289680451e+00 
       1.149810028000e-02       4.627995121144e+00 
       1.162206613114e-02       4.642196271645e+00 
       1.174606901039e-02       4.655886708152e+00 
       1.187010866765e-02       4.669082971812e+00 
       1.199418488471e-02       4.681788229363e+00 
       1.211829747421e-02       4.694002131473e+00 
       1.224244627863e-02       4.705738948250e+00 
       1.236663116941e-02       4.716999479133e+00 
       1.249085204607e-02       4.727798715361e+00 
       1.261510883545e-02       4.738126719305e+00 
       1.273940149094e-02       4.748004310265e+00 
       1.286372999182e-02       4.757428035680e+00 
       1.298809434267e-02       4.766403739688e+00 
       1.311249457272e-02       4.774939462372e+00 
       1.323693073542e-02       4.783040710243e+00 
       1.336140290784e-02       4.790709434152e+00 
       1.348591119034e-02       4.797960069008e+00 
       1.361045570605e-02       4.804787901187e+00 
       1.373503660061e-02       4.811199763877e+00 
       1.385965404174e-02       4.817205150080e+00 
       1.398430821901e-02       4.822806551868e+00 
       1.410899934352e-02       4.828007129994e+00 
       1.423372764771e-02       4.832818618710e+00 
       1.435849338511e-02       4.837239114449e+00 
       1.448329683018e-02       4.841278928821e+00 
       1.460813827812e-02       4.844939886501e+00 
       1.473301804481e-02       4.848226168690e+00 
       1.485793646664e-02       4.851143376904e+00 
       1.498289390044e-02       4.853699405328e+00 
       1.510789072347e-02       4.855896222773e+00 
       1.523292733332e-02       4.857740324290e+00 
       1.535800414793e-02       4.859233867202e+00 
       1.548312160558e-02       4.860381178268e+00 
       1.560828016494e-02       4.861193560873e+00 
       1.573348030509e-02       4.861670610873e+00 
       1.585872252561e-02       4.861817786275e+00 
       1.598400734663e-02       4.861645079626e+00 
       1.610933530897e-02       4.861137304740e+00 
       1.623470697422e-02       4.860319851776e+00 
       1.636012292492e-02       4.859194446031e+00 
       1.648558376469e-02       4.857762057027e+00 
       1.661109011841e-02       4.856024093144e+00 
       1.673664263240e-02       4.853991051092e+00 
       1.686224197463e-02       4.851662381391e+00 
       1.698788883495e-02       4.849041277855e+00 
       1.711358392534e-02       4.846144669344e+00 
       1.723932798012e-02       4.842952863810e+00 
       1.736512175629e-02       4.839502013312e+00 
       1.749096603375e-02       4.835773607035e+00 
       1.761686161566e-02       4.831778300945e+00 
       1.774280932873e-02       4.827511685167e+00 
       1.786881002356e-02       4.822992938707e+00 
       1.799486457501e-02       4.818216998998e+00 
       1.812097388257e-02       4.813191348177e+00 
       1.824713887072e-02       4.807919974069e+00 
       1.837336048938e-02       4.802400875608e+00 
       1.849963971429e-02       4.796643570601e+00 
       1.862597754748e-02       4.790649881938e+00 
       1.875237501771e-02       4.784428386533e+00 
       1.887883318094e-02       4.777979651371e+00 
       1.900535312085e-02       4.771303301323e+00 
       1.913193594933e-02       4.764412862765e+00 
       1.925858280700e-02       4.757296977640e+00 
       1.938529486380e-02       4.749972873124e+00 
       1.951207331950e-02       4.742436780871e+00 
       1.963891940434e-02       4.734697582282e+00 
       1.976583437961e-02       4.726755505570e+00 
       1.989281953829e-02       4.718619308633e+00 
       2.001987620571e-02       4.710286847338e+00 
       2.014700574018e-02       4.701765853738e+00 
       2.027420953374e-02       4.693042032691e+00 
       2.040148901283e-02       4.684157864872e+00 
       2.052884563906e-02       4.675079234129e+00 
       2.065628090997e-02       4.665823488289e+00 
       2.078379635978e-02       4.656386374630e+00 
       2.091139356027e-02       4.646795569455e+00 
       2.103907412157e-02       4.637024482430e+00 
       2.116683969302e-02       4.627096878031e+00 
       2.129469196411e-02       4.617007297058e+00 
       2.142263266535e-02       4.606759030227e+00 
       2.155066356926e-02       4.596356584031e+00 
       2.167878649131e-02       4.585798337922e+00 
       2.180700329099e-02       4.575085928447e+00 
       2.193531587278e-02       4.564237400889e+00 
       2.206372618728e-02       4.553248685376e+00 
       2.219223623229e-02       4.542111271842e+00 
       2.232084805397e-02       4.530846912921e+00 
       2.244956374803e-02       4.519446988401e+00 
       2.257838546090e-02       4.507913897475e+00 
       2.270731539105e-02       4.496255588827e+00 
       2.283635579024e-02       4.484468765668e+00 
       2.296550896486e-02       4.472568709196e+00 
       2.309477727734e-02       4.460543234509e+00 
       2.322416314755e-02       4.448403706478e+00 
       2.335366905427e-02       4.436147625884e+00 
       2.348329753672e-02       4.423784956400e+00 
       2.361305119611e-02       4.411315432192e+00 
       2.374293269725e-02       4.398738590393e+00 
       2.387294477028e-02       4.386059864959e+00 
       2.400309021230e-02       4.373281822256e+00 
       2.413337188923e-02       4.360402678572e+00 
       2.426379273761e-02       4.347434182546e+00 
       2.439435576651e-02       4.334372054367e+00 
       2.452506405949e-02       4.321220144392e+00 
       2.465592077667e-02       4.307980957169e+00 
       2.478692915676e-02       4.294657627026e+00 
       2.491809251927e-02       4.281250306723e+00 
       2.504941426679e-02       4.267763794517e+00 
       2.518089788722e-02       4.254201716039e+00 
       2.531254695627e-02       4.240561522435e+00 
       2.544436513988e-02       4.226851580251e+00 
       2.557635619681e-02       4.213070796079e+00 
       2.570852398133e-02       4.199219008384e+00 
       2.584087244594e-02       4.185301515479e+00 
       2.597340564424e-02       4.171323281487e+00 
       2.610612773389e-02       4.157281678488e+00 
       2.623904297966e-02       4.143178329119e+00 
       2.637215575665e-02       4.129019667300e+00 
       2.650547055353e-02       4.114805641183e+00 
       2.663899197597e-02       4.100536170894e+00 
       2.677272475021e-02       4.086217434461e+00 
       2.690667372668e-02       4.071847845650e+00 
       2.704084388387e-02       4.057430647066e+00 
       2.717524033223e-02       4.042967881097e+00 
       2.730986831833e-02       4.028462169812e+00 
       2.744473322907e-02       4.013913522397e+00 
       2.757984059617e-02       3.999326026755e+00 
       2.771519610072e-02       3.984698327422e+00 
       2.785080557800e-02       3.970033830095e+00 
       2.798667502244e-02       3.955336187342e+00 
       2.812281059279e-02       3.940604959513e+00 
       2.825921861753e-02       3.925841607918e+00 
       2.839590560043e-02       3.911048168925e+00 
       2.853287822642e-02       3.896226810247e+00 
       2.867014336763e-02       3.881378222688e+00 
       2.880770808975e-02       3.866505143687e+00 
       2.894557965859e-02       3.851607585744e+00 
       2.908376554696e-02       3.836687949437e+00 
       2.922227344183e-02       3.821748516887e+00 
       2.936111125182e-02       3.806789396010e+00 
       2.950028711498e-02       3.791810283880e+00 
       2.963980940692e-02       3.776816471386e+00 
       2.977968674934e-02       3.761806560325e+00 
       2.991992801888e-02       3.746783370075e+00 
       3.006054235642e-02       3.731748427193e+00 
       3.020153917674e-02       3.716699001363e+00 
       3.034292817872e-02       3.701641967810e+00 
       3.048471935591e-02       3.686574594718e+00 
       3.062692300766e-02       3.671501534712e+00 
       3.076954975073e-02       3.656418990923e+00 
       3.091261053153e-02       3.641331018132e+00 
       3.105611663883e-02       3.626239346131e+00 
       3.120007971717e-02       3.611143535708e+00 
       3.134451178094e-02       3.596046427525e+00 
       3.148942522908e-02       3.580946489144e+00 
       3.163483286058e-02       3.565845157581e+00 
       3.178074789075e-02       3.550745000816e+00 
       3.192718396829e-02       3.535646219540e+00 
       3.207415519325e-02       3.520549149009e+00 
       3.222167613596e-02       3.505454142439e+00 
       3.236976185693e-02       3.490362066816e+00 
       3.251842792776e-02       3.475275938400e+00 
       3.266769045326e-02       3.460193570541e+00 
       3.281756609471e-02       3.445118165469e+00 
       3.296807209441e-02       3.430047252848e+00 
       3.311922630162e-02       3.414986386373e+00 
       3.327104719986e-02       3.399929450296e+00 
       3.342355393590e-02       3.384882894504e+00 
       3.357676635028e-02       3.369844345528e+00 
       3.373070500968e-02       3.354812296305e+00 
       3.388539124115e-02       3.339792636188e+00 
       3.404084716838e-02       3.324781006809e+00 
       3.419709575014e-02       3.309781746210e+00 
       3.435416082110e-02       3.294791954430e+00 
       3.451206713503e-02       3.279814260735e+00 
       3.467084041087e-02       3.264847440280e+00 
       3.483050738153e-02       3.249890103611e+00 
       3.499109584590e-02       3.234945106686e+00 
       3.515263472420e-02       3.220014081510e+00 
       3.531515411689e-02       3.205093358935e+00 
       3.547868536756e-02       3.190185438582e+00 
       3.564326112997e-02       3.175287792925e+00 
       3.580891543966e-02       3.160403300211e+00 
       3.597568379052e-02       3.145532131020e+00 
       3.614360321665e-02       3.130671817997e+00 
       3.631271238005e-02       3.115822105489e+00 
       3.648305166451e-02       3.100985963231e+00 
       3.665466327647e-02       3.086159860691e+00 
       3.682759135313e-02       3.071347718650e+00 
       3.700188207881e-02       3.056542981250e+00 
       3.717758380999e-02       3.041749777339e+00 
       3.735474721006e-02       3.026966191736e+00 
       3.753342539455e-02       3.012194710243e+00 
       3.771367408789e-02       2.997429275415e+00 
       3.789555179276e-02       2.982673154937e+00 
       3.807911997330e-02       2.967925855173e+00 
       3.826444325354e-02       2.953185787598e+00 
       3.845158963247e-02       2.938451813598e+00 
       3.864063071773e-02       2.923721359108e+00 
       3.883164197941e-02       2.908999263595e+00 
       3.902470302655e-02       2.894278157223e+00 
       3.921989790844e-02       2.879561654528e+00 
       3.941731544346e-02       2.864845062178e+00 
       3.961704957874e-02       2.850129106978e+00 
       3.981919978381e-02       2.835414133849e+00 
       4.002387148228e-02       2.820695046599e+00 
       4.023117652610e-02       2.805972721167e+00 
       4.044123371716e-02       2.791245824664e+00 
       4.065416938230e-02       2.776510333758e+00 
       4.087011800810e-02       2.761768379265e+00 
       4.108922294299e-02       2.747016090786e+00 
       4.131163717545e-02       2.732249621546e+00 
       4.153752419801e-02       2.717467900664e+00 
       4.176705896879e-02       2.702671275699e+00 
       4.200042898355e-02       2.687852598667e+00 
       4.223783547389e-02       2.673011172769e+00 
       4.247949474925e-02       2.658148685935e+00 
       4.272563970381e-02       2.643255198290e+00 
       4.297652151252e-02       2.628328104305e+00 
       4.323241154501e-02       2.613368549571e+00 
       4.349360353122e-02       2.598371278503e+00 
       4.376041601845e-02       2.583329201561e+00 
       4.403319516735e-02       2.568240063598e+00 
       4.431231794305e-02       2.553099225011e+00 
       4.459819576870e-02       2.537903392712e+00 
       4.489127872208e-02       2.522643959221e+00 
       4.519206037240e-02       2.507314258149e+00 
       4.550108337449e-02       2.491906506764e+00 
       4.581894596305e-02       2.476421209095e+00 
       4.614630952020e-02       2.460843398567e+00 
       4.648390742907e-02       2.445161970625e+00 
       4.683255547441e-02       2.429374017980e+00 
       4.719316411280e-02       2.413471696870e+00 
       4.756675301229e-02       2.397438713369e+00 
       4.795446835950e-02       2.381264977833e+00 
       4.835760355679e-02       2.364946051879e+00 
       4.877762409092e-02       2.348427192202e+00 
       4.921619755703e-02       2.331695254505e+00 
       4.967523007970e-02       2.314747040343e+00 
       5.015691069999e-02       2.297541340509e+00 
       5.066376571099e-02       2.280055495994e+00 
       5.119872543759e-02       2.262248756737e+00 
       5.176520658204e-02       2.244073546640e+00 
       5.236721398511e-02       2.225476523179e+00 
       5.300946643626e-02       2.206383469227e+00 
       5.369755186298e-02       2.186710348222e+00 
       5.443811750858e-02       2.166345382550e+00 
       5.523909986108e-02       2.145145510485e+00 
       5.610999569786e-02       2.122924964539e+00 
       5.706216693470e-02       2.099435656703e+00 
       5.810915311482e-02       2.074345517523e+00 
