# Matter power spectrum P(k) at redshift z=99
# for k=1.00899e-05 to 203.102 h/Mpc,
# number of wavenumbers equal to 845
#    1:k (h/Mpc)              2:P (Mpc/h)^3        
       1.008985923246e-05       4.868383381406e-03 
       2.251775554681e-05       3.993255211842e-02 
       3.498636120247e-05       4.131499469392e-02 
       4.752690064658e-05       4.678331807279e-02 
       6.017107953230e-05       5.236032960026e-02 
       7.295134796122e-05       6.148055318967e-02 
       8.590117158737e-05       6.929630586607e-02 
       9.905531395762e-05       7.683723366314e-02 
       1.124501334903e-04       8.670045930027e-02 
       1.261238985241e-04       9.661898481026e-02 
       1.401171238832e-04       1.067414913320e-01 
       1.544729323814e-04       1.179914255505e-01 
       1.692374445844e-04       1.285081461691e-01 
       1.844601999316e-04       1.399757017695e-01 
       2.001946119095e-04       1.512313841750e-01 
       2.164984592990e-04       1.635554045015e-01 
       2.334344144703e-04       1.759462171618e-01 
       2.510706081373e-04       1.879868754202e-01 
       2.694812277303e-04       2.012327331399e-01 
       2.887471433953e-04       2.151230962064e-01 
       3.089565513139e-04       2.294856454749e-01 
       3.302056182976e-04       2.445088320013e-01 
       3.525991041420e-04       2.604193816230e-01 
       3.762509287930e-04       2.771434727168e-01 
       4.012846398372e-04       2.948553628815e-01 
       4.278337222871e-04       3.135466295802e-01 
       4.560416775835e-04       3.332983976761e-01 
       4.860617833145e-04       3.543235511519e-01 
       5.180564313506e-04       3.765800361019e-01 
       5.521959330390e-04       4.004365754464e-01 
       5.886566801031e-04       4.256886455954e-01 
       6.276185643138e-04       4.525983232034e-01 
       6.692615934693e-04       4.813050308501e-01 
       7.137617003222e-04       5.118032159002e-01 
       7.612858261435e-04       5.442798619529e-01 
       8.119864671933e-04       5.788174298892e-01 
       8.659959882004e-04       6.154302314854e-01 
       9.234211115549e-04       6.541733507882e-01 
       9.843380583383e-04       6.951367513109e-01 
       1.048788822492e-03       7.382641154184e-01 
       1.116778986862e-03       7.835201322314e-01 
       1.188277341593e-03       8.309083657730e-01 
       1.263217364035e-03       8.803031443849e-01 
       1.341500403710e-03       9.316131653002e-01 
       1.423000229794e-03       9.846876359777e-01 
       1.507568477172e-03       1.039495942143e+00 
       1.595040487038e-03       1.095781937184e+00 
       1.685241074673e-03       1.153422906306e+00 
       1.777989849548e-03       1.212282321612e+00 
       1.873105833077e-03       1.272198796548e+00 
       1.970411240942e-03       1.333012440342e+00 
       2.069734400901e-03       1.394570903055e+00 
       2.170911853969e-03       1.456751493293e+00 
       2.273789735124e-03       1.519422852419e+00 
       2.378224553043e-03       1.582440700140e+00 
       2.484083492891e-03       1.645715237519e+00 
       2.591244358339e-03       1.709120126982e+00 
       2.699595254278e-03       1.772564549749e+00 
       2.809034094327e-03       1.835956233658e+00 
       2.919467999818e-03       1.899214325717e+00 
       3.030812641171e-03       1.962266127383e+00 
       3.142991559080e-03       2.025029423759e+00 
       3.255935491967e-03       2.087448287138e+00 
       3.369581727509e-03       2.149466582072e+00 
       3.483873489548e-03       2.211027500735e+00 
       3.598759366763e-03       2.272081347838e+00 
       3.714192786088e-03       2.332587876410e+00 
       3.830131531369e-03       2.392507864632e+00 
       3.946537306183e-03       2.451799692503e+00 
       4.063375338686e-03       2.510438743265e+00 
       4.180614025754e-03       2.568389137804e+00 
       4.298224613405e-03       2.625630156469e+00 
       4.416180910359e-03       2.682136576546e+00 
       4.534459031676e-03       2.737886135526e+00 
       4.653037169509e-03       2.792863580446e+00 
       4.771895388214e-03       2.847052274022e+00 
       4.891015441268e-03       2.900438506617e+00 
       5.010380607654e-03       2.953009955035e+00 
       5.129975545600e-03       3.004756538515e+00 
       5.249786161774e-03       3.055671695808e+00 
       5.369799494223e-03       3.105747803137e+00 
       5.490003607537e-03       3.154980228924e+00 
       5.610387498875e-03       3.203363371895e+00 
       5.730941013670e-03       3.250898344165e+00 
       5.851654769906e-03       3.297583573045e+00 
       5.972520090068e-03       3.343416779440e+00 
       6.093528939880e-03       3.388400452637e+00 
       6.214673873133e-03       3.432536296979e+00 
       6.335947981903e-03       3.475829271841e+00 
       6.457344851613e-03       3.518280168756e+00 
       6.578858520406e-03       3.559893491801e+00 
       6.700483442374e-03       3.600673863769e+00 
       6.822214454238e-03       3.640629889241e+00 
       6.944046745134e-03       3.679763626070e+00 
       7.065975829162e-03       3.718086700847e+00 
       7.187997520434e-03       3.755606842990e+00 
       7.310107910369e-03       3.792327575756e+00 
       7.432303346994e-03       3.828253676782e+00 
       7.554580416073e-03       3.863399888232e+00 
       7.676935923868e-03       3.897776301662e+00 
       7.799366881390e-03       3.931384771760e+00 
       7.921870489981e-03       3.964231924440e+00 
       8.044444128110e-03       3.996339552737e+00 
       8.167085339271e-03       4.027705218936e+00 
       8.289791820870e-03       4.058343153737e+00 
       8.412561414027e-03       4.088265424287e+00 
       8.535392094189e-03       4.117470844663e+00 
       8.658281962499e-03       4.145977589616e+00 
       8.781229237845e-03       4.173791417521e+00 
       8.904232249532e-03       4.200923606438e+00 
       9.027289430517e-03       4.227381318539e+00 
       9.150399311170e-03       4.253171989994e+00 
       9.273560513504e-03       4.278312434393e+00 
       9.396771745844e-03       4.302801658924e+00 
       9.520031797891e-03       4.326648168654e+00 
       9.643339536152e-03       4.349874873491e+00 
       9.766693899711e-03       4.372471210297e+00 
       9.890093896300e-03       4.394456400244e+00 
       1.001353859866e-02       4.415838693898e+00 
       1.013702714118e-02       4.436627403467e+00 
       1.026055871672e-02       4.456820514280e+00 
       1.038413257374e-02       4.476433932362e+00 
       1.050774801356e-02       4.495476154700e+00 
       1.063140438788e-02       4.513947355722e+00 
       1.075510109639e-02       4.531864069728e+00 
       1.087883758462e-02       4.549229900497e+00 
       1.100261334193e-02       4.566048318217e+00 
       1.112642789957e-02       4.582332074758e+00 
       1.125028082899e-02       4.598081452298e+00 
       1.137417174014e-02       4.613313376602e+00 
       1.149810028000e-02       4.628018875409e+00 
       1.162206613114e-02       4.642220099727e+00 
       1.174606901039e-02       4.655910607212e+00 
       1.187010866765e-02       4.669106939132e+00 
       1.199418488471e-02       4.681812263127e+00 
       1.211829747421e-02       4.694026227860e+00 
       1.224244627863e-02       4.705764474058e+00 
       1.236663116941e-02       4.717023694209e+00 
       1.249085204607e-02       4.727822987191e+00 
       1.261510883545e-02       4.738155426268e+00 
       1.273940149094e-02       4.748028687152e+00 
       1.286372999182e-02       4.757452460178e+00 
       1.298809434267e-02       4.766428212392e+00 
       1.311249457272e-02       4.774963979822e+00 
       1.323693073542e-02       4.783065269749e+00 
       1.336140290784e-02       4.790734033692e+00 
       1.348591119034e-02       4.797984706537e+00 
       1.361045570605e-02       4.804812688017e+00 
       1.373503660061e-02       4.811224472412e+00 
       1.385965404174e-02       4.817230238968e+00 
       1.398430821901e-02       4.822831320041e+00 
       1.410899934352e-02       4.828032874392e+00 
       1.423372764771e-02       4.832843439592e+00 
       1.435849338511e-02       4.837264943723e+00 
       1.448329683018e-02       4.841304257925e+00 
       1.460813827812e-02       4.844964771850e+00 
       1.473301804481e-02       4.848251163124e+00 
       1.485793646664e-02       4.851168295631e+00 
       1.498289390044e-02       4.853724338233e+00 
       1.510789072347e-02       4.855921167486e+00 
       1.523292733332e-02       4.857765279239e+00 
       1.535800414793e-02       4.859258830627e+00 
       1.548312160558e-02       4.860406148377e+00 
       1.560828016494e-02       4.861218535951e+00 
       1.573348030509e-02       4.861688956904e+00 
       1.585872252561e-02       4.861839278324e+00 
       1.598400734663e-02       4.861670059443e+00 
       1.610933530897e-02       4.861162282760e+00 
       1.623470697422e-02       4.860344826428e+00 
       1.636012292492e-02       4.859224517282e+00 
       1.648558376469e-02       4.857787020186e+00 
       1.661109011841e-02       4.856049048203e+00 
       1.673664263240e-02       4.854014983704e+00 
       1.686224197463e-02       4.851687315704e+00 
       1.698788883495e-02       4.849065790157e+00 
       1.711358392534e-02       4.846169576995e+00 
       1.723932798012e-02       4.842977755904e+00 
       1.736512175629e-02       4.839532784309e+00 
       1.749096603375e-02       4.835798463947e+00 
       1.761686161566e-02       4.831803138200e+00 
       1.774280932873e-02       4.827536501325e+00 
       1.786881002356e-02       4.823017732533e+00 
       1.799486457501e-02       4.818243770295e+00 
       1.812097388257e-02       4.813216093354e+00 
       1.824713887072e-02       4.807944693049e+00 
       1.837336048938e-02       4.802425567095e+00 
       1.849963971429e-02       4.796668233381e+00 
       1.862597754748e-02       4.790674514793e+00 
       1.875237501771e-02       4.784451406271e+00 
       1.887883318094e-02       4.777990873661e+00 
       1.900535312085e-02       4.771327837378e+00 
       1.913193594933e-02       4.764437364279e+00 
       1.925858280700e-02       4.757321393261e+00 
       1.938529486380e-02       4.749997302192e+00 
       1.951207331950e-02       4.742459501214e+00 
       1.963891940434e-02       4.734721934608e+00 
       1.976583437961e-02       4.726779817961e+00 
       1.989281953829e-02       4.718643580094e+00 
       2.001987620571e-02       4.710310164301e+00 
       2.014700574018e-02       4.701790040352e+00 
       2.027420953374e-02       4.693066195805e+00 
       2.040148901283e-02       4.684181962752e+00 
       2.052884563906e-02       4.675103286234e+00 
       2.065628090997e-02       4.665847493701e+00 
       2.078379635978e-02       4.656410332417e+00 
       2.091139356027e-02       4.646819478828e+00 
       2.103907412157e-02       4.637048342460e+00 
       2.116683969302e-02       4.627120687912e+00 
       2.129469196411e-02       4.617031055962e+00 
       2.142263266535e-02       4.606782737350e+00 
       2.155066356926e-02       4.596380238532e+00 
       2.167878649131e-02       4.585819889190e+00 
       2.180700329099e-02       4.575109475354e+00 
       2.193531587278e-02       4.564260892882e+00 
       2.206372618728e-02       4.553272121767e+00 
       2.219223623229e-02       4.542134651841e+00 
       2.232084805397e-02       4.530875611479e+00 
       2.244956374803e-02       4.519470253629e+00 
       2.257838546090e-02       4.507937104277e+00 
       2.270731539105e-02       4.496278736561e+00 
       2.283635579024e-02       4.484491853660e+00 
       2.296550896486e-02       4.472586465970e+00 
       2.309477727734e-02       4.460566201243e+00 
       2.322416314755e-02       4.448426611613e+00 
       2.335366905427e-02       4.436172926576e+00 
       2.348329753672e-02       4.423807736655e+00 
       2.361305119611e-02       4.411338149181e+00 
       2.374293269725e-02       4.398761720940e+00 
       2.387294477028e-02       4.386082755588e+00 
       2.400309021230e-02       4.373304346213e+00 
       2.413337188923e-02       4.360425137126e+00 
       2.426379273761e-02       4.347456575256e+00 
       2.439435576651e-02       4.334395074530e+00 
       2.452506405949e-02       4.321242481081e+00 
       2.465592077667e-02       4.308003149438e+00 
       2.478692915676e-02       4.294679751692e+00 
       2.491809251927e-02       4.281272048946e+00 
       2.504941426679e-02       4.267785782464e+00 
       2.518089788722e-02       4.254223234915e+00 
       2.531254695627e-02       4.240583372020e+00 
       2.544436513988e-02       4.226873762177e+00 
       2.557635619681e-02       4.213092846017e+00 
       2.570852398133e-02       4.199239933812e+00 
       2.584087244594e-02       4.185323151685e+00 
       2.597340564424e-02       4.171345487015e+00 
       2.610612773389e-02       4.157303104581e+00 
       2.623904297966e-02       4.143199683619e+00 
       2.637215575665e-02       4.129041063692e+00 
       2.650547055353e-02       4.114826851084e+00 
       2.663899197597e-02       4.100557308254e+00 
       2.677272475021e-02       4.086239106811e+00 
       2.690667372668e-02       4.071871295187e+00 
       2.704084388387e-02       4.057451564902e+00 
       2.717524033223e-02       4.042989743395e+00 
       2.730986831833e-02       4.028482940163e+00 
       2.744473322907e-02       4.013934214740e+00 
       2.757984059617e-02       3.999346648680e+00 
       2.771519610072e-02       3.984718813745e+00 
       2.785080557800e-02       3.970055112805e+00 
       2.798667502244e-02       3.955356820341e+00 
       2.812281059279e-02       3.940623840978e+00 
       2.825921861753e-02       3.925861855445e+00 
       2.839590560043e-02       3.911068341554e+00 
       2.853287822642e-02       3.896246768992e+00 
       2.867014336763e-02       3.881399634930e+00 
       2.880770808975e-02       3.866525088683e+00 
       2.894557965859e-02       3.851627602885e+00 
       2.908376554696e-02       3.836707741082e+00 
       2.922227344183e-02       3.821768233667e+00 
       2.936111125182e-02       3.806809036353e+00 
       2.950028711498e-02       3.791829847932e+00 
       2.963980940692e-02       3.776835958952e+00 
       2.977968674934e-02       3.761826221969e+00 
       2.991992801888e-02       3.746802704398e+00 
       3.006054235642e-02       3.731767684812e+00 
       3.020153917674e-02       3.716719231048e+00 
       3.034292817872e-02       3.701661080986e+00 
       3.048471935591e-02       3.686593623640e+00 
       3.062692300766e-02       3.671520484807e+00 
       3.076954975073e-02       3.656437864072e+00 
       3.091261053153e-02       3.641349669975e+00 
       3.105611663883e-02       3.626258064595e+00 
       3.120007971717e-02       3.611162178258e+00 
       3.134451178094e-02       3.596064992343e+00 
       3.148942522908e-02       3.580964814492e+00 
       3.163483286058e-02       3.565863562007e+00 
       3.178074789075e-02       3.550763333927e+00 
       3.192718396829e-02       3.535664473407e+00 
       3.207415519325e-02       3.520567328371e+00 
       3.222167613596e-02       3.505472263317e+00 
       3.236976185693e-02       3.490380091072e+00 
       3.251842792776e-02       3.475293886206e+00 
       3.266769045326e-02       3.460211442880e+00 
       3.281756609471e-02       3.445136103572e+00 
       3.296807209441e-02       3.430066039956e+00 
       3.311922630162e-02       3.415004024282e+00 
       3.327104719986e-02       3.399947013448e+00 
       3.342355393590e-02       3.384899527445e+00 
       3.357676635028e-02       3.369861734115e+00 
       3.373070500968e-02       3.354830015385e+00 
       3.388539124115e-02       3.339809527914e+00 
       3.404084716838e-02       3.324798783119e+00 
       3.419709575014e-02       3.309796556480e+00 
       3.435416082110e-02       3.294808314548e+00 
       3.451206713503e-02       3.279831207274e+00 
       3.467084041087e-02       3.264864311956e+00 
       3.483050738153e-02       3.249906898749e+00 
       3.499109584590e-02       3.234961825475e+00 
       3.515263472420e-02       3.220030461853e+00 
       3.531515411689e-02       3.205109925909e+00 
       3.547868536756e-02       3.190201928125e+00 
       3.564326112997e-02       3.175304636846e+00 
       3.580891543966e-02       3.160421383124e+00 
       3.597568379052e-02       3.145548400490e+00 
       3.614360321665e-02       3.130687998628e+00 
       3.631271238005e-02       3.115838213542e+00 
       3.648305166451e-02       3.101001979372e+00 
       3.665466327647e-02       3.086175827709e+00 
       3.682759135313e-02       3.071363689368e+00 
       3.700188207881e-02       3.056558786352e+00 
       3.717758380999e-02       3.041764733282e+00 
       3.735474721006e-02       3.026981825682e+00 
       3.753342539455e-02       3.012210979377e+00 
       3.771367408789e-02       2.997444777403e+00 
       3.789555179276e-02       2.982688580600e+00 
       3.807911997330e-02       2.967941518083e+00 
       3.826444325354e-02       2.953200721418e+00 
       3.845158963247e-02       2.938467012528e+00 
       3.864063071773e-02       2.923737649122e+00 
       3.883164197941e-02       2.909014312433e+00 
       3.902470302655e-02       2.894293130834e+00 
       3.921989790844e-02       2.879576400306e+00 
       3.941731544346e-02       2.864859902572e+00 
       3.961704957874e-02       2.850143391048e+00 
       3.981919978381e-02       2.835428756525e+00 
       4.002387148228e-02       2.820708779599e+00 
       4.023117652610e-02       2.805987241635e+00 
       4.044123371716e-02       2.791259458930e+00 
       4.065416938230e-02       2.776524787119e+00 
       4.087011800810e-02       2.761782675372e+00 
       4.108922294299e-02       2.747029417910e+00 
       4.131163717545e-02       2.732263763473e+00 
       4.153752419801e-02       2.717481966514e+00 
       4.176705896879e-02       2.702685266072e+00 
       4.200042898355e-02       2.687866512721e+00 
       4.223783547389e-02       2.673025010543e+00 
       4.247949474925e-02       2.658162468589e+00 
       4.272563970381e-02       2.643268883172e+00 
       4.297652151252e-02       2.628342312537e+00 
       4.323241154501e-02       2.613382080930e+00 
       4.349360353122e-02       2.598384732622e+00 
       4.376041601845e-02       2.583342632939e+00 
       4.403319516735e-02       2.568253362962e+00 
       4.431231794305e-02       2.553112446569e+00 
       4.459819576870e-02       2.537914067894e+00 
       4.489127872208e-02       2.522657024152e+00 
       4.519206037240e-02       2.507327202643e+00 
       4.550108337449e-02       2.491919413676e+00 
       4.581894596305e-02       2.476434025596e+00 
       4.614630952020e-02       2.460855175816e+00 
       4.648390742907e-02       2.445174847656e+00 
       4.683255547441e-02       2.429386603208e+00 
       4.719316411280e-02       2.413482724895e+00 
       4.756675301229e-02       2.397451184345e+00 
       4.795446835950e-02       2.381277315451e+00 
       4.835760355679e-02       2.364958305189e+00 
       4.877762409092e-02       2.348438540585e+00 
       4.921619755703e-02       2.331707336916e+00 
       4.967523007970e-02       2.314759072222e+00 
       5.015691069999e-02       2.297553249340e+00 
       5.066376571099e-02       2.280067312434e+00 
       5.119872543759e-02       2.262260044412e+00 
       5.176520658204e-02       2.244085177724e+00 
       5.236721398511e-02       2.225488341075e+00 
       5.300946643626e-02       2.206394906113e+00 
       5.369755186298e-02       2.186721683722e+00 
       5.443811750858e-02       2.166357030473e+00 
       5.523909986108e-02       2.145156631779e+00 
       5.610999569786e-02       2.122935971310e+00 
       5.706216693470e-02       2.099446559253e+00 
       5.810915311482e-02       2.074356273915e+00 
