# dimensionless total [l(l+1)/2pi] C_l's
# for l=2 to 3000, i.e. number of multipoles equal to 2999
#
# -> if you prefer output in CAMB/HealPix/LensPix units/order, set 'format' to 'camb' in input file
# -> if you don't want to see such a header, set 'headers' to 'no' in input file
# -> for CMB lensing (phi), these are C_l^phi-phi for the lensing potential.
#    Remember the conversion factors:
#    C_l^dd (deflection) = l(l+1) C_l^phi-phi
#    C_l^gg (shear/convergence) = 1/4 (l(l+1))^2 C_l^phi-phi
#
# 1:l     2:TT                     3:EE                     4:TE                     5:BB                     6:phiphi                 7:TPhi                   8:Ephi               
    2       1.513668326534e-10       4.793996794344e-15       3.799605134156e-13       0.000000000000e+00       8.309277986580e-09       5.059301892175e-10      -2.012695345764e-12 
    3       1.417627337654e-10       6.054254916027e-15       4.281359364627e-13       0.000000000000e+00       5.130039400737e-09       3.573206979739e-10      -1.512248815056e-12 
    4       1.331031128454e-10       5.148312384938e-15       3.998203379743e-13       0.000000000000e+00       3.573587277678e-09       2.695909586048e-10      -9.768136050941e-13 
    5       1.266659626022e-10       3.372274995193e-15       3.391813205918e-13       0.000000000000e+00       2.668880774865e-09       2.123223328129e-10      -5.310400479047e-13 
    6       1.222154232886e-10       1.855025823909e-15       2.715935003192e-13       0.000000000000e+00       2.084798885012e-09       1.723427425420e-10      -2.072623838086e-13 
    7       1.192643617771e-10       9.971228098026e-16       2.117283025050e-13       0.000000000000e+00       1.680731556641e-09       1.430987248804e-10      -5.087633079774e-15 
    8       1.174542934760e-10       6.484337190505e-16       1.659124881096e-13       0.000000000000e+00       1.387280965135e-09       1.209832094082e-10       9.391247961798e-14 
    9       1.164867325473e-10       5.208555564009e-16       1.354230451639e-13       0.000000000000e+00       1.166778857950e-09       1.038454666602e-10       1.170817874871e-13 
   10       1.161140663434e-10       4.388892589121e-16       1.186589406591e-13       0.000000000000e+00       9.966965745989e-10       9.028531776534e-11       9.396087390084e-14 
   11       1.162401241743e-10       3.648968319269e-16       1.125882912261e-13       0.000000000000e+00       8.433008556625e-10       7.969046684298e-11       5.145306930817e-14 
   12       1.167189863542e-10       3.172101921083e-16       1.137850305055e-13       0.000000000000e+00       7.367663527585e-10       7.044042352552e-11       8.505647294585e-15 
   13       1.174809313158e-10       3.043863618608e-16       1.192753502950e-13       0.000000000000e+00       6.493111939091e-10       6.289745755707e-11      -2.257434656702e-14 
   14       1.184531060189e-10       3.151993320919e-16       1.268756457393e-13       0.000000000000e+00       5.765478990986e-10       5.631088371242e-11      -3.808045776171e-14 
   15       1.196330982747e-10       3.376313220862e-16       1.351675136893e-13       0.000000000000e+00       5.153004533155e-10       5.077406890613e-11      -3.911838007898e-14 
   16       1.209611816789e-10       3.710867272481e-16       1.435467878445e-13       0.000000000000e+00       4.632266691469e-10       4.602402868866e-11      -3.059088982625e-14 
   17       1.224272395387e-10       4.221952910166e-16       1.519153047128e-13       0.000000000000e+00       4.185571039682e-10       4.189574817541e-11      -1.835772146763e-14 
   18       1.239831179254e-10       4.958931380705e-16       1.605135232086e-13       0.000000000000e+00       3.797884036823e-10       3.827322350985e-11      -7.625036940192e-15 
   19       1.256403574319e-10       5.919341649797e-16       1.695822526607e-13       0.000000000000e+00       3.463021750128e-10       3.511669013032e-11      -8.588869213572e-16 
   20       1.273778410142e-10       7.077726644912e-16       1.793017478318e-13       0.000000000000e+00       3.168107256721e-10       3.233221880304e-11       6.140684275601e-16 
   21       1.292017691807e-10       8.428041966956e-16       1.896254709149e-13       0.000000000000e+00       2.908508330230e-10       2.986846992919e-11      -2.208184159536e-15 
   22       1.310936418140e-10       9.966796403930e-16       2.003314873983e-13       0.000000000000e+00       2.678005944865e-10       2.764903541075e-11      -7.116166796801e-15 
   23       1.330515010405e-10       1.169166167696e-15       2.109803601126e-13       0.000000000000e+00       2.473431466479e-10       2.565120985095e-11      -1.224158055218e-14 
   24       1.350583310023e-10       1.359986921147e-15       2.210290957175e-13       0.000000000000e+00       2.290059537266e-10       2.384724731908e-11      -1.576026360085e-14 
   25       1.371250130839e-10       1.569687196467e-15       2.302069088469e-13       0.000000000000e+00       2.125732845269e-10       2.222965603802e-11      -1.704120550891e-14 
   26       1.392521380243e-10       1.799277615355e-15       2.383382875159e-13       0.000000000000e+00       1.977475731273e-10       2.077882685468e-11      -1.603226717707e-14 
   27       1.414255147379e-10       2.050815309196e-15       2.453556523299e-13       0.000000000000e+00       1.843508576864e-10       1.946641822097e-11      -1.354591659944e-14 
   28       1.436183065166e-10       2.326672136357e-15       2.512535584883e-13       0.000000000000e+00       1.721520926061e-10       1.825441991699e-11      -1.074036925670e-14 
   29       1.458406834895e-10       2.628294669021e-15       2.560975058370e-13       0.000000000000e+00       1.610889126770e-10       1.714167723835e-11      -8.251422279416e-15 
   30       1.481036622190e-10       2.956826684281e-15       2.600108559664e-13       0.000000000000e+00       1.510424751777e-10       1.613000165698e-11      -6.645735273661e-15 
   31       1.504072443118e-10       3.313341719438e-15       2.631187731807e-13       0.000000000000e+00       1.418078061951e-10       1.521162500673e-11      -6.414063344506e-15 
   32       1.527538240559e-10       3.698758786059e-15       2.653656005896e-13       0.000000000000e+00       1.333371390304e-10       1.437610241327e-11      -7.275797900141e-15 
   33       1.551369562999e-10       4.113880549898e-15       2.666278578488e-13       0.000000000000e+00       1.255704896155e-10       1.360402832591e-11      -8.597342396930e-15 
   34       1.575433696742e-10       4.559463011907e-15       2.667642664905e-13       0.000000000000e+00       1.183990855583e-10       1.287237299416e-11      -9.699032540765e-15 
   35       1.599775041918e-10       5.036413709113e-15       2.656325662695e-13       0.000000000000e+00       1.117861622788e-10       1.218306968020e-11      -1.034775766534e-14 
   36       1.624437929525e-10       5.545654705138e-15       2.630758713842e-13       0.000000000000e+00       1.056786161920e-10       1.154360189928e-11      -1.043006708134e-14 
   37       1.649416780973e-10       6.088053404493e-15       2.589506519269e-13       0.000000000000e+00       9.999690476967e-11       1.095830270848e-11      -9.880276514743e-15 
   38       1.674736251956e-10       6.664375736334e-15       2.532430073533e-13       0.000000000000e+00       9.472630192682e-11       1.042528987759e-11      -8.880201764207e-15 
   39       1.700385268409e-10       7.275310563699e-15       2.459915023241e-13       0.000000000000e+00       8.985004183235e-11       9.937962157494e-12      -7.730257556790e-15 
   40       1.726287193121e-10       7.921476479582e-15       2.372578372353e-13       0.000000000000e+00       8.532156172179e-11       9.485367646621e-12      -6.801823652168e-15 
   41       1.752343132600e-10       8.603464529101e-15       2.271039159556e-13       0.000000000000e+00       8.108071044022e-11       9.055505529427e-12      -6.434871392741e-15 
   42       1.778594549182e-10       9.321993867921e-15       2.155107023630e-13       0.000000000000e+00       7.711496685012e-11       8.647372407196e-12      -6.579875303706e-15 
   43       1.805102566671e-10       1.007779923823e-14       2.024353072695e-13       0.000000000000e+00       7.341377621318e-11       8.262243408848e-12      -7.046954508888e-15 
   44       1.831899624351e-10       1.087158693081e-14       1.878327752584e-13       0.000000000000e+00       6.995018118415e-11       7.900256144914e-12      -7.599945022348e-15 
   45       1.858996479363e-10       1.170399699272e-14       1.716565897597e-13       0.000000000000e+00       6.669044062746e-11       7.560688971007e-12      -8.012430448071e-15 
   46       1.886413072375e-10       1.257547931974e-14       1.538610173233e-13       0.000000000000e+00       6.362939157149e-11       7.243134439012e-12      -8.262459807119e-15 
   47       1.914151575183e-10       1.348637839617e-14       1.343989957221e-13       0.000000000000e+00       6.076343843365e-11       6.946503809050e-12      -8.391242041594e-15 
   48       1.942184590230e-10       1.443696335606e-14       1.132211898471e-13       0.000000000000e+00       5.807988776531e-11       6.668599957914e-12      -8.449899449415e-15 
   49       1.970452609627e-10       1.542742462981e-14       9.027576125436e-14       0.000000000000e+00       5.555627192516e-11       6.406037640896e-12      -8.500034910141e-15 
   50       1.998891600638e-10       1.645790182165e-14       6.551449298013e-14       0.000000000000e+00       5.316710832917e-11       6.155227481422e-12      -8.600289866283e-15 
   51       2.027530484562e-10       1.752858404277e-14       3.891365857810e-14       0.000000000000e+00       5.090790923750e-11       5.915827809221e-12      -8.760400857340e-15 
   52       2.056415725157e-10       1.863963101595e-14       1.045841939371e-14       0.000000000000e+00       4.877652008099e-11       5.688091952287e-12      -8.975652635886e-15 
   53       2.085582418143e-10       1.979114238594e-14      -1.986296861804e-14       0.000000000000e+00       4.676593481837e-11       5.471857424007e-12      -9.239707602711e-15 
   54       2.115053167940e-10       2.098315583577e-14      -5.205908627443e-14       0.000000000000e+00       4.486396951924e-11       5.266516242770e-12      -9.544513774081e-15 
   55       2.144841126755e-10       2.221565953769e-14      -8.613587819649e-14       0.000000000000e+00       4.305697413035e-11       5.071275731549e-12      -9.879864216779e-15 
   56       2.174962569222e-10       2.348863744358e-14      -1.220985444197e-13       0.000000000000e+00       4.134279535276e-11       4.886084780718e-12      -1.023215802753e-14 
   57       2.205425474088e-10       2.480203194623e-14      -1.599499985100e-13       0.000000000000e+00       3.972046227657e-11       4.710885701266e-12      -1.058517035168e-14 
   58       2.236224695384e-10       2.615572923399e-14      -1.996902686625e-13       0.000000000000e+00       3.818626493185e-11       4.545325941767e-12      -1.092027063470e-14 
   59       2.267341001331e-10       2.754955796561e-14      -2.413164522905e-13       0.000000000000e+00       3.673358520345e-11       4.388739725389e-12      -1.121631701020e-14 
   60       2.298740113244e-10       2.898328794500e-14      -2.848226706146e-13       0.000000000000e+00       3.535272774574e-11       4.240129686902e-12      -1.144955068807e-14 
   61       2.330387306873e-10       3.045657812000e-14      -3.302008838838e-13       0.000000000000e+00       3.403360858811e-11       4.098439803433e-12      -1.159917562032e-14 
   62       2.362297220529e-10       3.196880993715e-14      -3.774436536026e-13       0.000000000000e+00       3.277490868008e-11       3.963487317640e-12      -1.166579994281e-14 
   63       2.394493572328e-10       3.351921405975e-14      -4.265419225541e-13       0.000000000000e+00       3.157668426339e-11       3.835208361217e-12      -1.165696534104e-14 
   64       2.426994126253e-10       3.510691486815e-14      -4.774841911338e-13       0.000000000000e+00       3.043761362441e-11       3.713376179786e-12      -1.158190033574e-14 
   65       2.459810224846e-10       3.673092752660e-14      -5.302564992454e-13       0.000000000000e+00       2.935491868127e-11       3.597592012433e-12      -1.145159506039e-14 
   66       2.492946321898e-10       3.839015505014e-14      -5.848424081973e-13       0.000000000000e+00       2.832428657102e-11       3.487275971248e-12      -1.127887603897e-14 
   67       2.526399515139e-10       4.008338537149e-14      -6.412229825985e-13       0.000000000000e+00       2.733979123677e-11       3.381657920862e-12      -1.107848096357e-14 
   68       2.560164945524e-10       4.180939986369e-14      -6.993767614416e-13       0.000000000000e+00       2.639547370977e-11       3.279979696772e-12      -1.086451296376e-14 
   69       2.594254310081e-10       4.356733099931e-14      -7.592797050157e-13       0.000000000000e+00       2.549063006260e-11       3.182169728003e-12      -1.064203726931e-14 
   70       2.628680277993e-10       4.535637222620e-14      -8.209052046650e-13       0.000000000000e+00       2.462545899332e-11       3.088289354438e-12      -1.041390832052e-14 
   71       2.663450644331e-10       4.717567284280e-14      -8.842240745989e-13       0.000000000000e+00       2.379946258874e-11       2.998329934089e-12      -1.018324723687e-14 
   72       2.698568012784e-10       4.902433791556e-14      -9.492045335120e-13       0.000000000000e+00       2.301141033343e-11       2.912209127717e-12      -9.953449574065e-15 
   73       2.734029478392e-10       5.090142819633e-14      -1.015812186203e-12       0.000000000000e+00       2.225930311872e-11       2.829767183459e-12      -9.728193080962e-15 
   74       2.769826310278e-10       5.280596003979e-14      -1.084010005197e-12       0.000000000000e+00       2.154033725173e-11       2.750763221447e-12      -9.511445456576e-15 
   75       2.805943634379e-10       5.473690532081e-14      -1.153758312360e-12       0.000000000000e+00       2.085086846437e-11       2.674871518430e-12      -9.307472107038e-15 
   76       2.842367001965e-10       5.669314597921e-14      -1.225016312811e-12       0.000000000000e+00       2.018731506332e-11       2.601766168636e-12      -9.120073445192e-15 
   77       2.879104179368e-10       5.867332826684e-14      -1.297747060201e-12       0.000000000000e+00       1.954913707589e-11       2.531401102639e-12      -8.950119073865e-15 
   78       2.916166773763e-10       6.067598164819e-14      -1.371913367686e-12       0.000000000000e+00       1.893633750142e-11       2.463774618428e-12      -8.797575952788e-15 
   79       2.953563526663e-10       6.269956081859e-14      -1.447476349202e-12       0.000000000000e+00       1.834855490274e-11       2.398843662789e-12      -8.662231053655e-15 
   80       2.991300137851e-10       6.474244469121e-14      -1.524395432913e-12       0.000000000000e+00       1.778504667302e-11       2.336521928150e-12      -8.543683318246e-15 
   81       3.029379089307e-10       6.680293538405e-14      -1.602628374662e-12       0.000000000000e+00       1.724467230266e-11       2.276677949429e-12      -8.441335616550e-15 
   82       3.067799469141e-10       6.887925720697e-14      -1.682131271421e-12       0.000000000000e+00       1.672587664609e-11       2.219133200885e-12      -8.354386704889e-15 
   83       3.106556795524e-10       7.096955564869e-14      -1.762858574743e-12       0.000000000000e+00       1.622667318870e-11       2.163660192966e-12      -8.281823184033e-15 
   84       3.145645972003e-10       7.307195738968e-14      -1.844762482085e-12       0.000000000000e+00       1.574512587006e-11       2.110037507041e-12      -8.222380181925e-15 
   85       3.185071102042e-10       7.518476399107e-14      -1.927790965381e-12       0.000000000000e+00       1.528092298319e-11       2.058229551229e-12      -8.174433528349e-15 
   86       3.224836986274e-10       7.730628860727e-14      -2.011889438792e-12       0.000000000000e+00       1.483403472823e-11       2.008233253499e-12      -8.136074877612e-15 
   87       3.264946014160e-10       7.943479782741e-14      -2.097001354721e-12       0.000000000000e+00       1.440422962378e-11       1.960022841051e-12      -8.105132953407e-15 
   88       3.305398040541e-10       8.156851168803e-14      -2.183068206808e-12       0.000000000000e+00       1.399106615288e-11       1.913548894108e-12      -8.079164981302e-15 
   89       3.346190262203e-10       8.370560368570e-14      -2.270029532929e-12       0.000000000000e+00       1.359388440898e-11       1.868737399698e-12      -8.055448121224e-15 
   90       3.387317094435e-10       8.584420078963e-14      -2.357822918185e-12       0.000000000000e+00       1.321179774184e-11       1.825488805442e-12      -8.030970899945e-15 
   91       3.428770047585e-10       8.798238345441e-14      -2.446383997899e-12       0.000000000000e+00       1.284368440356e-11       1.783677073348e-12      -8.002424643565e-15 
   92       3.470537603620e-10       9.011818563258e-14      -2.535646460612e-12       0.000000000000e+00       1.248817919448e-11       1.743148733591e-12      -7.966194910000e-15 
   93       3.512608679844e-10       9.224962772790e-14      -2.625543260915e-12       0.000000000000e+00       1.214399674381e-11       1.703761055594e-12      -7.919215915498e-15 
   94       3.554983884078e-10       9.437482109692e-14      -2.716010460106e-12       0.000000000000e+00       1.181097511498e-11       1.665505183536e-12      -7.861699421307e-15 
   95       3.597665731901e-10       9.649187936100e-14      -2.806983971394e-12       0.000000000000e+00       1.148917444312e-11       1.628399857152e-12      -7.794802341010e-15 
   96       3.640655137125e-10       9.859888732469e-14      -2.898398420865e-12       0.000000000000e+00       1.117855553497e-11       1.592453540809e-12      -7.719803550866e-15 
   97       3.683951337587e-10       1.006939014406e-13      -2.990187167087e-12       0.000000000000e+00       1.087897606705e-11       1.557664014241e-12      -7.638107168478e-15 
   98       3.727551820948e-10       1.027749502740e-13      -3.082282320710e-12       0.000000000000e+00       1.059018678400e-11       1.524017963304e-12      -7.551245831451e-15 
   99       3.771452250498e-10       1.048400349682e-13      -3.174614764069e-12       0.000000000000e+00       1.031182769677e-11       1.491490570711e-12      -7.460883976055e-15 
  100       3.815646390949e-10       1.068871297085e-13      -3.267114170782e-12       0.000000000000e+00       1.004342428088e-11       1.460045106782e-12      -7.368821115893e-15 
  101       3.860126034241e-10       1.089141821880e-13      -3.359709025360e-12       0.000000000000e+00       9.784383674710e-12       1.429632520187e-12      -7.276995120558e-15 
  102       3.904880925332e-10       1.109191140715e-13      -3.452326642801e-12       0.000000000000e+00       9.533990877699e-12       1.400191028688e-12      -7.187485494295e-15 
  103       3.949898688006e-10       1.128998214611e-13      -3.544893188194e-12       0.000000000000e+00       9.291404948633e-12       1.371645709886e-12      -7.102516654671e-15 
  104       3.995167387064e-10       1.148542264571e-13      -3.637334259204e-12       0.000000000000e+00       9.055849266967e-12       1.343925613915e-12      -7.023974074987e-15 
  105       4.040683768922e-10       1.167804387749e-13      -3.729576680898e-12       0.000000000000e+00       8.827219776197e-12       1.317018615723e-12      -6.951871210176e-15 
  106       4.086446001046e-10       1.186766169287e-13      -3.821546991043e-12       0.000000000000e+00       8.605552200260e-12       1.290923244061e-12      -6.885680623214e-15 
  107       4.132451090283e-10       1.205409200980e-13      -3.913170924356e-12       0.000000000000e+00       8.390833668600e-12       1.265631607118e-12      -6.824800578531e-15 
