# dimensionless total [l(l+1)/2pi] C_l's
# for l=2 to 3000, i.e. number of multipoles equal to 2999
#
# -> if you prefer output in CAMB/HealPix/LensPix units/order, set 'format' to 'camb' in input file
# -> if you don't want to see such a header, set 'headers' to 'no' in input file
# -> for CMB lensing (phi), these are C_l^phi-phi for the lensing potential.
#    Remember the conversion factors:
#    C_l^dd (deflection) = l(l+1) C_l^phi-phi
#    C_l^gg (shear/convergence) = 1/4 (l(l+1))^2 C_l^phi-phi
#
# 1:l     2:TT                     3:EE                     4:TE                     5:BB                     6:phiphi                 7:TPhi                   8:Ephi               
    2       1.513657739062e-10       4.793963271711e-15       3.799578565158e-13       0.000000000000e+00       8.309219940014e-09       5.059266408427e-10      -2.012681271739e-12 
    3       1.417617425037e-10       6.054212580889e-15       4.281329426909e-13       0.000000000000e+00       5.130003704225e-09       3.573182066560e-10      -1.512238240492e-12 
    4       1.331021824381e-10       5.148276384746e-15       3.998175421988e-13       0.000000000000e+00       3.573562591259e-09       2.695890880480e-10      -9.768067745798e-13 
    5       1.266650764675e-10       3.372251414183e-15       3.391789488587e-13       0.000000000000e+00       2.668862454516e-09       2.123208462660e-10      -5.310363344447e-13 
    6       1.222145686382e-10       1.855012852449e-15       2.715916011698e-13       0.000000000000e+00       2.084784549405e-09       1.723415327940e-10      -2.072609345736e-13 
    7       1.192635280804e-10       9.971158373287e-16       2.117268219675e-13       0.000000000000e+00       1.680719987075e-09       1.430977386630e-10      -5.087597738742e-15 
    8       1.174534742217e-10       6.484291848191e-16       1.659113279179e-13       0.000000000000e+00       1.387271477536e-09       1.209823859915e-10       9.391182304942e-14 
    9       1.164859180403e-10       5.208519142597e-16       1.354220983044e-13       0.000000000000e+00       1.166770882072e-09       1.038447405357e-10       1.170809692617e-13 
   10       1.161132554910e-10       4.388861899390e-16       1.186581108283e-13       0.000000000000e+00       9.966897923179e-10       9.028468536466e-11       9.396021683251e-14 
   11       1.162393122139e-10       3.648942803760e-16       1.125875039172e-13       0.000000000000e+00       8.432950712414e-10       7.968992857254e-11       5.145270879517e-14 
   12       1.167181746457e-10       3.172079739708e-16       1.137842346483e-13       0.000000000000e+00       7.367613073719e-10       7.043995312102e-11       8.505587591648e-15 
   13       1.174801103936e-10       3.043842335817e-16       1.192745162883e-13       0.000000000000e+00       6.493067538525e-10       6.289701575266e-11      -2.257418789438e-14 
   14       1.184522808510e-10       3.151971280378e-16       1.268747585464e-13       0.000000000000e+00       5.765439618105e-10       5.631048398009e-11      -3.808019080294e-14 
   15       1.196322624237e-10       3.376289612936e-16       1.351665682438e-13       0.000000000000e+00       5.152969381449e-10       5.077373428665e-11      -3.911810713377e-14 
   16       1.209603436181e-10       3.710841326827e-16       1.435457839037e-13       0.000000000000e+00       4.632235115567e-10       4.602373406605e-11      -3.059067677248e-14 
   17       1.224263845917e-10       4.221923388996e-16       1.519142420361e-13       0.000000000000e+00       4.185542532483e-10       4.189545619238e-11      -1.835759274963e-14 
   18       1.239822496456e-10       4.958896705404e-16       1.605124003612e-13       0.000000000000e+00       3.797858192195e-10       3.827295644526e-11      -7.624982996830e-15 
   19       1.256394814366e-10       5.919300256775e-16       1.695810663882e-13       0.000000000000e+00       3.462998200292e-10       3.511646093382e-11      -8.588810238354e-16 
   20       1.273769546702e-10       7.077677144862e-16       1.793004931985e-13       0.000000000000e+00       3.168085719637e-10       3.233200516347e-11       6.140633129296e-16 
   21       1.292008703802e-10       8.427983020282e-16       1.896241437389e-13       0.000000000000e+00       2.908488563436e-10       2.986826279502e-11      -2.208169617883e-15 
   22       1.310927318055e-10       9.966726705303e-16       2.003300855993e-13       0.000000000000e+00       2.677987758808e-10       2.764885199778e-11      -7.116117081173e-15 
   23       1.330505798060e-10       1.169157993185e-15       2.109788838791e-13       0.000000000000e+00       2.473414689407e-10       2.565105211778e-11      -1.224149409392e-14 
   24       1.350573963130e-10       1.359977413338e-15       2.210275480241e-13       0.000000000000e+00       2.290044021204e-10       2.384709276987e-11      -1.576015275450e-14 
   25       1.371240642749e-10       1.569676222231e-15       2.302052955594e-13       0.000000000000e+00       2.125718455354e-10       2.222949874986e-11      -1.704108674175e-14 
   26       1.392511767085e-10       1.799265034221e-15       2.383366171600e-13       0.000000000000e+00       1.977462353799e-10       2.077868639842e-11      -1.603215642462e-14 
   27       1.414245400480e-10       2.050800967461e-15       2.453539332490e-13       0.000000000000e+00       1.843496111756e-10       1.946629957701e-11      -1.354582321360e-14 
   28       1.436173141831e-10       2.326655865212e-15       2.512517978447e-13       0.000000000000e+00       1.721509290788e-10       1.825430369578e-11      -1.074029384529e-14 
   29       1.458396704124e-10       2.628276289469e-15       2.560957103657e-13       0.000000000000e+00       1.610878243857e-10       1.714154900935e-11      -8.251362071246e-15 
   30       1.481026285476e-10       2.956806008644e-15       2.600090320446e-13       0.000000000000e+00       1.510414552461e-10       1.612986403126e-11      -6.645685461082e-15 
   31       1.504061935056e-10       3.313318551868e-15       2.631169268361e-13       0.000000000000e+00       1.418068491953e-10       1.521149708242e-11      -6.414017332781e-15 
   32       1.527527593783e-10       3.698732924521e-15       2.653637383075e-13       0.000000000000e+00       1.333362398189e-10       1.437599951769e-11      -7.275749610373e-15 
   33       1.551358795390e-10       4.113851787342e-15       2.666259868884e-13       0.000000000000e+00       1.255696433741e-10       1.360395388953e-11      -8.597287343480e-15 
   34       1.575422809425e-10       4.559431136538e-15       2.667623949613e-13       0.000000000000e+00       1.183982881274e-10       1.287231850673e-11      -9.698968400035e-15 
   35       1.599764023660e-10       5.036378502582e-15       2.656307030548e-13       0.000000000000e+00       1.117854097515e-10       1.218302590240e-11      -1.034768474971e-14 
   36       1.624426756753e-10       5.545615942131e-15       2.630740261769e-13       0.000000000000e+00       1.056779050565e-10       1.154356274632e-11      -1.042998895310e-14 
   37       1.649405420869e-10       6.088010853013e-15       2.589488351048e-13       0.000000000000e+00       9.999623209254e-11       1.095826545482e-11      -9.880199609466e-15 
   38       1.674724682161e-10       6.664329158415e-15       2.532412291487e-13       0.000000000000e+00       9.472566489693e-11       1.042525265343e-11      -8.880131373216e-15 
   39       1.700373485925e-10       7.275259715867e-15       2.459897724567e-13       0.000000000000e+00       8.984943777303e-11       9.937923310320e-12      -7.730196224652e-15 
   40       1.726275219174e-10       7.921421113232e-15       2.372561647209e-13       0.000000000000e+00       8.532098829724e-11       9.485325836917e-12      -6.801770491607e-15 
   41       1.752331009616e-10       8.603404390765e-15       2.271023092450e-13       0.000000000000e+00       8.108016574467e-11       9.055459910482e-12      -6.434822284549e-15 
   42       1.778582310224e-10       9.321928699147e-15       2.155091706310e-13       0.000000000000e+00       7.711444905604e-11       8.647323073123e-12      -6.579826205166e-15 
   43       1.805090224000e-10       1.007772877576e-14       2.024338609093e-13       0.000000000000e+00       7.341328354705e-11       8.262191673701e-12      -7.046902590667e-15 
   44       1.831887165185e-10       1.087151090690e-14       1.878314260787e-13       0.000000000000e+00       6.994971203337e-11       7.900204764532e-12      -7.599888982234e-15 
   45       1.858983868660e-10       1.170391513596e-14       1.716553508930e-13       0.000000000000e+00       6.668999358870e-11       7.560641950109e-12      -8.012370491325e-15 
   46       1.886400279728e-10       1.257539135755e-14       1.538599021365e-13       0.000000000000e+00       6.362896528197e-11       7.243095417165e-12      -8.262396461995e-15 
   47       1.914138584405e-10       1.348628405618e-14       1.343980174475e-13       0.000000000000e+00       6.076303156924e-11       6.946475463853e-12      -8.391175824506e-15 
   48       1.942171402477e-10       1.443686236704e-14       1.132203614837e-13       0.000000000000e+00       5.807949910470e-11       6.668583786394e-12      -8.449830851831e-15 
   49       1.970439246705e-10       1.542731672264e-14       9.027509546429e-14       0.000000000000e+00       5.555590041888e-11       6.406033728626e-12      -8.499964384592e-15 
   50       1.998878100156e-10       1.645778672912e-14       6.551400220087e-14       0.000000000000e+00       5.316675311602e-11       6.155234449253e-12      -8.600217755905e-15 
   51       2.027516867597e-10       1.752846149515e-14       3.891335586532e-14       0.000000000000e+00       5.090756947589e-11       5.915843378167e-12      -8.760327140010e-15 
   52       2.056401984256e-10       1.863950073965e-14       1.045831872340e-14       0.000000000000e+00       4.877619492331e-11       5.688113036820e-12      -8.975576801903e-15 
   53       2.085568512793e-10       1.979100410340e-14      -1.986285224622e-14       0.000000000000e+00       4.676562344017e-11       5.471880046859e-12      -9.239628580240e-15 
   54       2.115039019829e-10       2.098300926531e-14      -5.205873672836e-14       0.000000000000e+00       4.486367115038e-11       5.266535446389e-12      -9.544429851094e-15 
   55       2.144826627996e-10       2.221550439351e-14      -8.613527871677e-14       0.000000000000e+00       4.305668806786e-11       5.071285949629e-12      -9.879773254135e-15 
   56       2.174947633742e-10       2.348847343627e-14      -1.220976801578e-13       0.000000000000e+00       4.134252090864e-11       4.886081731435e-12      -1.023205863817e-14 
   57       2.205410056205e-10       2.480185878286e-14      -1.599488575287e-13       0.000000000000e+00       3.972019877803e-11       4.710867130972e-12      -1.058506234759e-14 
   58       2.236208796433e-10       2.615554661808e-14      -1.996888423799e-13       0.000000000000e+00       3.818601174171e-11       4.545291952784e-12      -1.092015520802e-14 
   59       2.267324676591e-10       2.754936559703e-14      -2.413147359427e-13       0.000000000000e+00       3.673334174176e-11       4.388693118508e-12      -1.121619692238e-14 
   60       2.298723479166e-10       2.898308551989e-14      -2.848206637366e-13       0.000000000000e+00       3.535249351266e-11       4.240076318595e-12      -1.144943046697e-14 
   61       2.330370530791e-10       3.045636533326e-14      -3.301985892434e-13       0.000000000000e+00       3.403338316581e-11       4.098388081985e-12      -1.159906121165e-14 
   62       2.362280452566e-10       3.196858649300e-14      -3.774410710416e-13       0.000000000000e+00       3.277469166334e-11       3.963444856884e-12      -1.166569656373e-14 
   63       2.394476922604e-10       3.351897967609e-14      -4.265390468068e-13       0.000000000000e+00       3.157647524765e-11       3.835180861857e-12      -1.165687674040e-14 
   64       2.426977658507e-10       3.510666927847e-14      -4.774810110810e-13       0.000000000000e+00       3.043741221510e-11       3.713367117399e-12      -1.158182856286e-14 
   65       2.459793949786e-10       3.673067048208e-14      -5.302529971372e-13       0.000000000000e+00       2.935472450366e-11       3.597602312395e-12      -1.145154022433e-14 
   66       2.492930190292e-10       3.838988632177e-14      -5.848385588445e-13       0.000000000000e+00       2.832409928061e-11       3.487303670575e-12      -1.127883605814e-14 
   67       2.526383410640e-10       4.008310475224e-14      -6.412187525338e-13       0.000000000000e+00       2.733961053022e-11       3.381697816983e-12      -1.107845130577e-14 
   68       2.560148694759e-10       4.180910716659e-14      -6.993721105520e-13       0.000000000000e+00       2.639529932476e-11       3.280023796361e-12      -1.086448701700e-14 
   69       2.594237749193e-10       4.356702604182e-14      -7.592745962400e-13       0.000000000000e+00       2.549046174079e-11       3.182210313517e-12      -1.064200877462e-14 
   70       2.628663273746e-10       4.535605482566e-14      -8.208996072124e-13       0.000000000000e+00       2.462529647365e-11       3.088319942307e-12      -1.041387214522e-14 
   71       2.663433098874e-10       4.717534281574e-14      -8.842179648418e-13       0.000000000000e+00       2.379930561187e-11       2.998345474278e-12      -1.018319955126e-14 
   72       2.698549868604e-10       4.902399507702e-14      -9.491978959121e-13       0.000000000000e+00       2.301125864642e-11       2.912206211002e-12      -9.953388034761e-15 
   73       2.734010723444e-10       5.090107235914e-14      -1.015805014270e-12       0.000000000000e+00       2.225915647997e-11       2.829744256426e-12      -9.728117021144e-15 
   74       2.769806983300e-10       5.280559101377e-14      -1.084002302481e-12       0.000000000000e+00       2.154019543610e-11       2.750720809204e-12      -9.511356082953e-15 
   75       2.805923830393e-10       5.473652291202e-14      -1.153750093475e-12       0.000000000000e+00       2.085073126855e-11       2.674812455044e-12      -9.307372703626e-15 
   76       2.842346863849e-10       5.669274999203e-14      -1.225007601409e-12       0.000000000000e+00       2.018718230587e-11       2.601695313640e-12      -9.119969081196e-15 
   77       2.879083844312e-10       5.867291851572e-14      -1.297737877068e-12       0.000000000000e+00       1.954900857945e-11       2.531323390492e-12      -8.950014704451e-15 
   78       2.916146356912e-10       6.067555796144e-14      -1.371903726968e-12       0.000000000000e+00       1.893621308988e-11       2.463694483644e-12      -8.797475844871e-15 
   79       2.953543118032e-10       6.269912303940e-14      -1.447466257521e-12       0.000000000000e+00       1.834843440386e-11       2.398764956806e-12      -8.662138684916e-15 
   80       2.991279799134e-10       6.474199267871e-14      -1.524384888457e-12       0.000000000000e+00       1.778492992117e-11       2.336447833227e-12      -8.543601272624e-15 
   81       3.029358850581e-10       6.680246901438e-14      -1.602617366245e-12       0.000000000000e+00       1.724455914162e-11       2.276610889565e-12      -8.441265476222e-15 
   82       3.067779325465e-10       6.887877637435e-14      -1.682119777512e-12       0.000000000000e+00       1.672576693206e-11       2.219074749757e-12      -8.354328938721e-15 
   83       3.106536703426e-10       7.096906026655e-14      -1.762846562462e-12       0.000000000000e+00       1.622656679333e-11       2.163610978890e-12      -8.281777032525e-15 
   84       3.145625854682e-10       7.307144738992e-14      -1.844749909479e-12       0.000000000000e+00       1.574502267984e-11       2.109997284577e-12      -8.222343786501e-15 
   85       3.185050882579e-10       7.518423931728e-14      -1.927777794217e-12       0.000000000000e+00       1.528082288658e-11       2.058197810978e-12      -8.174404847976e-15 
   86       3.224816597299e-10       7.730574921302e-14      -2.011875638525e-12       0.000000000000e+00       1.483393761324e-11       2.008209377882e-12      -8.136051942765e-15 
   87       3.264925399162e-10       7.943424367636e-14      -2.096986903342e-12       0.000000000000e+00       1.440413537920e-11       1.960006098277e-12      -8.105113884413e-15 
   88       3.305377155223e-10       8.156794275398e-14      -2.183053091712e-12       0.000000000000e+00       1.399097466960e-11       1.913538432013e-12      -8.079148007320e-15 
   89       3.346169075876e-10       8.370501995268e-14      -2.270013751809e-12       0.000000000000e+00       1.359379558134e-11       1.868732239458e-12      -8.055431599880e-15 
   90       3.387295591453e-10       8.584360225199e-14      -2.357806479953e-12       0.000000000000e+00       1.321171146908e-11       1.825487835162e-12      -8.030953337609e-15 
   91       3.428748228824e-10       8.798177011682e-14      -2.446366923632e-12       0.000000000000e+00       1.284360059125e-11       1.783679041514e-12      -8.002404716277e-15 
   92       3.470515488001e-10       9.011755751013e-14      -2.535628784522e-12       0.000000000000e+00       1.248809775606e-11       1.743152242406e-12      -7.966171485044e-15 
   93       3.512586301452e-10       9.224898484596e-14      -2.625525027917e-12       0.000000000000e+00       1.214391760020e-11       1.703764609540e-12      -7.919188050508e-15 
   94       3.554961275229e-10       9.437416349063e-14      -2.715991712533e-12       0.000000000000e+00       1.181089818800e-11       1.665507413404e-12      -7.861666290710e-15 
   95       3.597642918222e-10       9.649120707504e-14      -2.806964744975e-12       0.000000000000e+00       1.148909965428e-11       1.628399594884e-12      -7.794763225348e-15 
   96       3.640632136861e-10       9.859820041323e-14      -2.898378743961e-12       0.000000000000e+00       1.117848280613e-11       1.592449841955e-12      -7.719757848585e-15 
   97       3.683928160890e-10       1.006931999672e-13      -2.990167059902e-12       0.000000000000e+00       1.087890532115e-11       1.557656181053e-12      -7.638054408044e-15 
   98       3.727528469158e-10       1.027742343117e-13      -3.082261794488e-12       0.000000000000e+00       1.059011794577e-11       1.524005568456e-12      -7.551185683799e-15 
   99       3.771428715389e-10       1.048393045991e-13      -3.174593820263e-12       0.000000000000e+00       1.031176069351e-11       1.491473481658e-12      -7.460816267368e-15 
  100       3.815622653969e-10       1.068863850242e-13      -3.267092800205e-12       0.000000000000e+00       1.004335904325e-11       1.460023510749e-12      -7.368745840703e-15 
  101       3.860102065721e-10       1.089134232888e-13      -3.359687207311e-12       0.000000000000e+00       9.784320137495e-12       1.429606949792e-12      -7.276912455186e-15 
  102       3.904856683691e-10       1.109183410670e-13      -3.452304344172e-12       0.000000000000e+00       9.533928980701e-12       1.400162388196e-12      -7.187395810620e-15 
  103       3.949874118924e-10       1.128990344694e-13      -3.544870362554e-12       0.000000000000e+00       9.291344637504e-12       1.371615302096e-12      -7.102420534222e-15 
  104       3.995142426724e-10       1.148534256082e-13      -3.637310849544e-12       0.000000000000e+00       9.055790492791e-12       1.343895067736e-12      -7.023872295685e-15 
  105       4.040658360100e-10       1.167796242224e-13      -3.729552633979e-12       0.000000000000e+00       8.827162490926e-12       1.316989499160e-12      -6.951764646096e-15 
  106       4.086420098065e-10       1.186757888541e-13      -3.821522261677e-12       0.000000000000e+00       8.605496355776e-12       1.290896950279e-12      -6.885570220135e-15 
  107       4.132424660056e-10       1.205400787117e-13      -3.913145476158e-12       0.000000000000e+00       8.390779217052e-12       1.265609336189e-12      -6.824687356147e-15 
