# Matter power spectrum P(k) at redshift z=99
# for k=1.00899e-05 to 203.102 h/Mpc,
# number of wavenumbers equal to 845
#    1:k (h/Mpc)              2:P (Mpc/h)^3        
       1.008985923385e-05       8.603044012313e-03 
       2.251775554930e-05       1.859283727164e-02 
       3.498636120606e-05       2.838328957452e-02 
       4.752690065129e-05       3.808723082298e-02 
       6.017107953816e-05       4.776684947145e-02 
       7.295134796828e-05       5.746750389550e-02 
       8.590117159567e-05       6.722714640798e-02 
       9.905531396721e-05       7.708015043889e-02 
       1.124501335013e-04       8.705923776696e-02 
       1.261238985365e-04       9.719662227523e-02 
       1.401171238971e-04       1.075247817983e-01 
       1.544729323969e-04       1.180770368560e-01 
       1.692374446017e-04       1.288880395847e-01 
       1.844601999509e-04       1.399942001467e-01 
       2.001946119308e-04       1.514340954770e-01 
       2.164984593225e-04       1.632488662415e-01 
       2.334344144963e-04       1.754826148590e-01 
       2.510706081659e-04       1.881828115043e-01 
       2.694812277618e-04       2.014006987956e-01 
       2.887471434300e-04       2.151917132074e-01 
       3.089565513521e-04       2.296158934481e-01 
       3.302056183397e-04       2.447382757019e-01 
       3.525991041884e-04       2.606292675372e-01 
       3.762509288441e-04       2.773649540199e-01 
       4.012846398935e-04       2.950273303237e-01 
       4.278337223492e-04       3.137044030644e-01 
       4.560416776520e-04       3.334901099032e-01 
       4.860617833901e-04       3.544840102780e-01 
       5.180564314341e-04       3.767906575132e-01 
       5.521959331310e-04       4.005185965926e-01 
       5.886566802046e-04       4.257789139841e-01 
       6.276185644258e-04       4.526832580661e-01 
       6.692615935926e-04       4.813413325619e-01 
       7.137617004578e-04       5.118578521173e-01 
       7.612858262925e-04       5.443290299949e-01 
       8.119864673565e-04       5.788387495465e-01 
       8.659959883789e-04       6.154546616859e-01 
       9.234211117495e-04       6.542244604038e-01 
       9.843380585498e-04       6.951727141361e-01 
       1.048788822721e-03       7.382985353049e-01 
       1.116778987109e-03       7.835744122112e-01 
       1.188277341859e-03       8.309463048712e-01 
       1.263217364320e-03       8.803352624486e-01 
       1.341500404014e-03       9.316483919591e-01 
       1.423000230117e-03       9.847588256658e-01 
       1.507568477514e-03       1.039531074570e+00 
       1.595040487398e-03       1.095818961138e+00 
       1.685241075052e-03       1.153469814170e+00 
       1.777989849946e-03       1.212328252569e+00 
       1.873105833493e-03       1.272239462800e+00 
       1.970411241375e-03       1.333051894482e+00 
       2.069734401352e-03       1.394619225768e+00 
       2.170911854437e-03       1.456801889565e+00 
       2.273789735608e-03       1.519468054957e+00 
       2.378224553543e-03       1.582494038100e+00 
       2.484083493407e-03       1.645764666899e+00 
       2.591244358870e-03       1.709172965057e+00 
       2.699595254824e-03       1.772620426494e+00 
       2.809034094888e-03       1.836016093683e+00 
       2.919468000394e-03       1.899276621156e+00 
       3.030812641761e-03       1.962325452343e+00 
       3.142991559685e-03       2.025092927069e+00 
       3.255935492585e-03       2.087514898733e+00 
       3.369581728141e-03       2.149533235654e+00 
       3.483873490193e-03       2.211094769679e+00 
       3.598759367421e-03       2.272151746820e+00 
       3.714192786759e-03       2.332659797316e+00 
       3.830131532053e-03       2.392579697973e+00 
       3.946537306880e-03       2.451875105077e+00 
       4.063375339396e-03       2.510514390093e+00 
       4.180614026477e-03       2.568467706172e+00 
       4.298224614140e-03       2.625709905295e+00 
       4.416180911106e-03       2.682217528128e+00 
       4.534459032436e-03       2.737969626665e+00 
       4.653037170281e-03       2.792948619295e+00 
       4.771895388998e-03       2.847138134689e+00 
       4.891015442065e-03       2.900525348918e+00 
       5.010380608463e-03       2.953098150265e+00 
       5.129975546421e-03       3.004845880316e+00 
       5.249786162607e-03       3.055761601997e+00 
       5.369799495068e-03       3.105837943385e+00 
       5.490003608392e-03       3.155071095948e+00 
       5.610387499743e-03       3.203456743012e+00 
       5.730941014549e-03       3.250992158357e+00 
       5.851654770797e-03       3.297676639153e+00 
       5.972520090970e-03       3.343510871981e+00 
       6.093528940795e-03       3.388495107711e+00 
       6.214673874059e-03       3.432631525952e+00 
       6.335947982840e-03       3.475923478801e+00 
       6.457344852562e-03       3.518373387329e+00 
       6.578858521367e-03       3.559987425939e+00 
       6.700483443346e-03       3.600770157985e+00 
       6.822214455222e-03       3.640726047448e+00 
       6.944046746129e-03       3.679862496671e+00 
       7.065975830168e-03       3.718186542871e+00 
       7.187997521452e-03       3.755703299469e+00 
       7.310107911398e-03       3.792423239175e+00 
       7.432303348035e-03       3.828353497803e+00 
       7.554580417124e-03       3.863501943993e+00 
       7.676935924931e-03       3.897875200904e+00 
       7.799366882465e-03       3.931483901643e+00 
       7.921870491067e-03       3.964336824382e+00 
       8.044444129208e-03       3.996442483172e+00 
       8.167085340379e-03       4.027810290639e+00 
       8.289791821990e-03       4.058448314934e+00 
       8.412561415158e-03       4.088367393348e+00 
       8.535392095331e-03       4.117575888702e+00 
       8.658281963652e-03       4.146082802438e+00 
       8.781229239010e-03       4.173896620595e+00 
       8.904232250708e-03       4.201029180851e+00 
       9.027289431704e-03       4.227487124192e+00 
       9.150399312368e-03       4.253279667705e+00 
       9.273560514714e-03       4.278416597182e+00 
       9.396771747065e-03       4.302906279611e+00 
       9.520031799123e-03       4.326756991669e+00 
       9.643339537395e-03       4.349978630251e+00 
       9.766693900965e-03       4.372577316279e+00 
       9.890093897566e-03       4.394563862080e+00 
       1.001353859994e-02       4.415946345549e+00 
       1.013702714247e-02       4.436730507799e+00 
       1.026055871802e-02       4.456925741407e+00 
       1.038413257505e-02       4.476539346484e+00 
       1.050774801489e-02       4.495582162951e+00 
       1.063140438921e-02       4.514054852916e+00 
       1.075510109773e-02       4.531972691823e+00 
       1.087883758598e-02       4.549337765890e+00 
       1.100261334330e-02       4.566156831629e+00 
       1.112642790095e-02       4.582438584629e+00 
       1.125028083038e-02       4.598190339875e+00 
       1.137417174154e-02       4.613417542396e+00 
       1.149810028141e-02       4.628128554827e+00 
       1.162206613256e-02       4.642326520111e+00 
       1.174606901183e-02       4.656020953398e+00 
       1.187010866910e-02       4.669216870202e+00 
       1.199418488617e-02       4.681921005317e+00 
       1.211829747567e-02       4.694137283186e+00 
       1.224244628010e-02       4.705875597321e+00 
       1.236663117090e-02       4.717139433266e+00 
       1.249085204757e-02       4.727932645583e+00 
       1.261510883696e-02       4.738264753323e+00 
       1.273940149246e-02       4.748137844761e+00 
       1.286372999336e-02       4.757561538159e+00 
       1.298809434421e-02       4.766538846940e+00 
       1.311249457428e-02       4.775074301657e+00 
       1.323693073698e-02       4.783174385470e+00 
       1.336140290942e-02       4.790845305371e+00 
       1.348591119193e-02       4.798092811529e+00 
       1.361045570765e-02       4.804920463155e+00 
       1.373503660222e-02       4.811334143252e+00 
       1.385965404336e-02       4.817339702630e+00 
       1.398430822064e-02       4.822941195710e+00 
       1.410899934517e-02       4.828145136103e+00 
       1.423372764937e-02       4.832954632080e+00 
       1.435849338678e-02       4.837376592523e+00 
       1.448329683185e-02       4.841413026087e+00 
       1.460813827981e-02       4.845073605364e+00 
       1.473301804651e-02       4.848361785967e+00 
       1.485793646835e-02       4.851280624629e+00 
       1.498289390217e-02       4.853833815387e+00 
       1.510789072521e-02       4.856031928231e+00 
       1.523292733507e-02       4.857874362411e+00 
       1.535800414968e-02       4.859367186512e+00 
       1.548312160735e-02       4.860517361369e+00 
       1.560828016672e-02       4.861331619003e+00 
       1.573348030688e-02       4.861805374929e+00 
       1.585872252741e-02       4.861950349778e+00 
       1.598400734844e-02       4.861771547956e+00 
       1.610933531079e-02       4.861269624423e+00 
       1.623470697605e-02       4.860455001317e+00 
       1.636012292677e-02       4.859329372187e+00 
       1.648558376655e-02       4.857894063383e+00 
       1.661109012028e-02       4.856157778295e+00 
       1.673664263428e-02       4.854122265358e+00 
       1.686224197652e-02       4.851795582390e+00 
       1.698788883685e-02       4.849180048488e+00 
       1.711358392725e-02       4.846277265260e+00 
       1.723932798205e-02       4.843095093087e+00 
       1.736512175823e-02       4.839636077477e+00 
       1.749096603570e-02       4.835905418149e+00 
       1.761686161762e-02       4.831904577507e+00 
       1.774280933070e-02       4.827648378526e+00 
       1.786881002554e-02       4.823124078846e+00 
       1.799486457700e-02       4.818350253276e+00 
       1.812097388457e-02       4.813324091560e+00 
       1.824713887274e-02       4.808047645398e+00 
       1.837336049141e-02       4.802530419814e+00 
       1.849963971633e-02       4.796775254247e+00 
       1.862597754953e-02       4.790781509667e+00 
       1.875237501977e-02       4.784556466324e+00 
       1.887883318301e-02       4.778103939714e+00 
       1.900535312294e-02       4.771431425745e+00 
       1.913193595143e-02       4.764535097030e+00 
       1.925858280911e-02       4.757424881002e+00 
       1.938529486592e-02       4.750097912016e+00 
       1.951207332163e-02       4.742565319718e+00 
       1.963891940648e-02       4.734824577075e+00 
       1.976583438176e-02       4.726890466759e+00 
       1.989281954046e-02       4.718748390678e+00 
       2.001987620788e-02       4.710411765108e+00 
       2.014700574237e-02       4.701891601240e+00 
       2.027420953594e-02       4.693177903705e+00 
       2.040148901504e-02       4.684281473053e+00 
       2.052884564128e-02       4.675203498739e+00 
       2.065628091220e-02       4.665948271201e+00 
       2.078379636203e-02       4.656523797578e+00 
       2.091139356253e-02       4.646925506661e+00 
       2.103907412384e-02       4.637152431038e+00 
       2.116683969530e-02       4.627226265963e+00 
       2.129469196640e-02       4.617128300792e+00 
       2.142263266765e-02       4.606872201928e+00 
       2.155066357157e-02       4.596472940479e+00 
       2.167878649364e-02       4.585921124459e+00 
       2.180700329333e-02       4.575211243672e+00 
       2.193531587513e-02       4.564362759597e+00 
       2.206372618964e-02       4.553367296222e+00 
       2.219223623466e-02       4.542234986479e+00 
       2.232084805636e-02       4.530968776881e+00 
       2.244956375042e-02       4.519569682231e+00 
       2.257838546331e-02       4.508033858603e+00 
       2.270731539347e-02       4.496378545826e+00 
       2.283635579267e-02       4.484594394487e+00 
       2.296550896730e-02       4.472678824398e+00 
       2.309477727980e-02       4.460664468209e+00 
       2.322416315002e-02       4.448533043773e+00 
       2.335366905675e-02       4.436272797313e+00 
       2.348329753921e-02       4.423908263541e+00 
       2.361305119861e-02       4.411432975906e+00 
       2.374293269977e-02       4.398854506319e+00 
       2.387294477280e-02       4.386179794403e+00 
       2.400309021484e-02       4.373396177411e+00 
       2.413337189178e-02       4.360525413337e+00 
       2.426379274017e-02       4.347556256800e+00 
       2.439435576908e-02       4.334487456546e+00 
       2.452506406208e-02       4.321335697189e+00 
       2.465592077927e-02       4.308094800503e+00 
       2.478692915937e-02       4.294778405478e+00 
       2.491809252189e-02       4.281366504466e+00 
       2.504941426942e-02       4.267874094519e+00 
       2.518089788986e-02       4.254315274660e+00 
       2.531254695892e-02       4.240690596571e+00 
       2.544436514254e-02       4.226969792647e+00 
       2.557635619949e-02       4.213192166605e+00 
       2.570852398403e-02       4.199339110967e+00 
       2.584087244865e-02       4.185426083919e+00 
       2.597340564696e-02       4.171434107884e+00 
       2.610612773662e-02       4.157394619376e+00 
       2.623904298241e-02       4.143293177715e+00 
       2.637215575941e-02       4.129130644934e+00 
       2.650547055630e-02       4.114917613500e+00 
       2.663899197875e-02       4.100641671851e+00 
       2.677272475300e-02       4.086326942148e+00 
       2.690667372948e-02       4.071960859832e+00 
       2.704084388668e-02       4.057534605867e+00 
       2.717524033506e-02       4.043074084334e+00 
       2.730986832117e-02       4.028570149447e+00 
       2.744473323193e-02       4.014028418988e+00 
       2.757984059904e-02       3.999427968165e+00 
       2.771519610360e-02       3.984804147088e+00 
       2.785080558089e-02       3.970150459918e+00 
       2.798667502534e-02       3.955440243088e+00 
       2.812281059571e-02       3.940715891185e+00 
       2.825921862046e-02       3.925942741198e+00 
       2.839590560337e-02       3.911157884459e+00 
       2.853287822937e-02       3.896334821680e+00 
       2.867014337060e-02       3.881480010051e+00 
       2.880770809274e-02       3.866606899746e+00 
       2.894557966159e-02       3.851706534861e+00 
       2.908376554997e-02       3.836795898081e+00 
       2.922227344485e-02       3.821859319465e+00 
       2.936111125486e-02       3.806894339673e+00 
       2.950028711803e-02       3.791914038214e+00 
       2.963980940998e-02       3.776921723707e+00 
       2.977968675242e-02       3.761907041395e+00 
       2.991992802197e-02       3.746883531780e+00 
       3.006054235952e-02       3.731850719823e+00 
       3.020153917986e-02       3.716799840413e+00 
       3.034292818185e-02       3.701742588202e+00 
       3.048471935906e-02       3.686677010984e+00 
       3.062692301082e-02       3.671595695998e+00 
       3.076954975391e-02       3.656520932740e+00 
       3.091261053472e-02       3.641435992533e+00 
       3.105611664203e-02       3.626343281496e+00 
       3.120007972039e-02       3.611248997854e+00 
       3.134451178417e-02       3.596136876710e+00 
       3.148942523232e-02       3.581040294191e+00 
       3.163483286384e-02       3.565941963373e+00 
       3.178074789403e-02       3.550847040755e+00 
       3.192718397158e-02       3.535739836825e+00 
       3.207415519655e-02       3.520642384472e+00 
       3.222167613928e-02       3.505549826274e+00 
       3.236976186026e-02       3.490452345895e+00 
       3.251842793110e-02       3.475384761890e+00 
       3.266769045662e-02       3.460275337032e+00 
       3.281756609808e-02       3.445218693585e+00 
       3.296807209781e-02       3.430144545736e+00 
       3.311922630503e-02       3.415069747282e+00 
       3.327104720329e-02       3.400023749901e+00 
       3.342355393934e-02       3.384978112067e+00 
       3.357676635374e-02       3.369930065034e+00 
       3.373070501315e-02       3.354904984502e+00 
       3.388539124463e-02       3.339885238947e+00 
       3.404084717188e-02       3.324873601085e+00 
       3.419709575366e-02       3.309873077724e+00 
       3.435416082463e-02       3.294888926921e+00 
       3.451206713858e-02       3.279914810926e+00 
       3.467084041444e-02       3.264943748711e+00 
       3.483050738512e-02       3.249969962502e+00 
       3.499109584951e-02       3.235023513557e+00 
       3.515263472782e-02       3.220107054922e+00 
       3.531515412053e-02       3.205181257578e+00 
       3.547868537122e-02       3.190272402323e+00 
       3.564326113364e-02       3.175376451972e+00 
       3.580891544335e-02       3.160493367740e+00 
       3.597568379423e-02       3.145611891820e+00 
       3.614360322038e-02       3.130761253909e+00 
       3.631271238380e-02       3.115904673530e+00 
       3.648305166828e-02       3.101060582297e+00 
       3.665466328025e-02       3.086242398220e+00 
       3.682759135694e-02       3.071433249176e+00 
       3.700188208264e-02       3.056628412093e+00 
       3.717758381384e-02       3.041836367549e+00 
       3.735474721393e-02       3.027052118507e+00 
       3.753342539844e-02       3.012272943348e+00 
       3.771367409180e-02       2.997504387145e+00 
       3.789555179669e-02       2.982752574783e+00 
       3.807911997726e-02       2.968001482030e+00 
       3.826444325751e-02       2.953266765004e+00 
       3.845158963647e-02       2.938533237805e+00 
       3.864063072175e-02       2.923806861837e+00 
       3.883164198345e-02       2.909082972111e+00 
       3.902470303062e-02       2.894359792359e+00 
       3.921989791253e-02       2.879642008402e+00 
       3.941731544758e-02       2.864923707080e+00 
       3.961704958289e-02       2.850205304098e+00 
       3.981919978798e-02       2.835490818581e+00 
       4.002387148648e-02       2.820775080548e+00 
       4.023117653032e-02       2.806052308703e+00 
       4.044123372141e-02       2.791321990630e+00 
       4.065416938658e-02       2.776587442753e+00 
       4.087011801240e-02       2.761845782736e+00 
       4.108922294733e-02       2.747092888259e+00 
       4.131163717982e-02       2.732319823310e+00 
       4.153752420241e-02       2.717538538303e+00 
       4.176705897322e-02       2.702744795681e+00 
       4.200042898802e-02       2.687924483009e+00 
       4.223783547839e-02       2.673086934977e+00 
       4.247949475379e-02       2.658221961720e+00 
       4.272563970839e-02       2.643327860238e+00 
       4.297652151713e-02       2.628404639280e+00 
       4.323241154967e-02       2.613436633018e+00 
       4.349360353592e-02       2.598443459029e+00 
       4.376041602319e-02       2.583398909214e+00 
       4.403319517213e-02       2.568310916194e+00 
       4.431231794788e-02       2.553172139424e+00 
       4.459819577357e-02       2.537974166104e+00 
       4.489127872701e-02       2.522713152654e+00 
       4.519206037738e-02       2.507377962532e+00 
       4.550108337953e-02       2.492000999504e+00 
       4.581894596815e-02       2.476497996870e+00 
       4.614630952536e-02       2.460917620385e+00 
       4.648390743429e-02       2.445230173697e+00 
       4.683255547970e-02       2.429444996074e+00 
       4.719316411816e-02       2.413532548688e+00 
       4.756675301773e-02       2.397496045233e+00 
       4.795446836503e-02       2.381325638127e+00 
       4.835760356241e-02       2.365001978696e+00 
       4.877762409663e-02       2.348492596086e+00 
       4.921619756285e-02       2.331777459057e+00 
       4.967523008562e-02       2.314827731056e+00 
       5.015691070604e-02       2.297632413360e+00 
       5.066376571717e-02       2.280158330029e+00 
       5.119872544391e-02       2.262349633593e+00 
       5.176520658853e-02       2.244188087053e+00 
       5.236721399178e-02       2.225601547625e+00 
       5.300946644312e-02       2.206517479428e+00 
       5.369755187007e-02       2.186849366996e+00 
       5.443811751592e-02       2.166492913854e+00 
       5.523909986870e-02       2.145303449836e+00 
       5.610999570581e-02       2.123091752310e+00 
       5.706216694303e-02       2.099604039599e+00 
       5.810915312358e-02       2.074527105711e+00 
