# Matter power spectrum P(k) at redshift z=99
# for k=1.00899e-05 to 203.102 h/Mpc,
# number of wavenumbers equal to 845
#    1:k (h/Mpc)              2:P (Mpc/h)^3        
       1.008985923246e-05       4.867128426175e-03 
       2.251775554681e-05       3.993410583512e-02 
       3.498636120247e-05       4.131603331825e-02 
       4.752690064658e-05       4.678422672292e-02 
       6.017107953230e-05       5.236116570257e-02 
       7.295134796122e-05       6.148147064967e-02 
       8.590117158737e-05       6.929727227777e-02 
       9.905531395762e-05       7.683825555681e-02 
       1.124501334903e-04       8.670158062807e-02 
       1.261238985241e-04       9.662019820044e-02 
       1.401171238832e-04       1.067428068597e-01 
       1.544729323814e-04       1.179926816545e-01 
       1.692374445844e-04       1.285100847308e-01 
       1.844601999316e-04       1.399773848615e-01 
       2.001946119095e-04       1.512331546223e-01 
       2.164984592990e-04       1.635573069414e-01 
       2.334344144703e-04       1.759482518703e-01 
       2.510706081373e-04       1.879890399762e-01 
       2.694812277303e-04       2.012350420014e-01 
       2.887471433953e-04       2.151255562259e-01 
       3.089565513139e-04       2.294882624436e-01 
       3.302056182976e-04       2.445116136900e-01 
       3.525991041420e-04       2.604223383663e-01 
       3.762509287930e-04       2.771466136004e-01 
       4.012846398372e-04       2.948586994611e-01 
       4.278337222871e-04       3.135501727921e-01 
       4.560416775835e-04       3.333021552220e-01 
       4.860617833145e-04       3.543275428715e-01 
       5.180564313506e-04       3.765842674283e-01 
       5.521959330390e-04       4.004410882347e-01 
       5.886566801031e-04       4.256934349681e-01 
       6.276185643138e-04       4.526034124416e-01 
       6.692615934693e-04       4.813104399577e-01 
       7.137617003222e-04       5.118089702597e-01 
       7.612858261435e-04       5.442859637647e-01 
       8.119864671933e-04       5.788239257067e-01 
       8.659959882004e-04       6.154371276386e-01 
       9.234211115549e-04       6.541806782899e-01 
       9.843380583383e-04       6.951445427532e-01 
       1.048788822492e-03       7.382723907423e-01 
       1.116778986862e-03       7.835289102503e-01 
       1.188277341593e-03       8.309176738853e-01 
       1.263217364035e-03       8.803130043273e-01 
       1.341500403710e-03       9.316236006793e-01 
       1.423000229794e-03       9.846986653175e-01 
       1.507568477172e-03       1.039507585580e+00 
       1.595040487038e-03       1.095794210895e+00 
       1.685241074673e-03       1.153435825345e+00 
       1.777989849548e-03       1.212295901613e+00 
       1.873105833077e-03       1.272213047685e+00 
       1.970411240942e-03       1.333027372942e+00 
       2.069734400901e-03       1.394586524777e+00 
       2.170911853969e-03       1.456767811573e+00 
       2.273789735124e-03       1.519439873095e+00 
       2.378224553043e-03       1.582458426248e+00 
       2.484083492891e-03       1.645733672201e+00 
       2.591244358339e-03       1.709139271607e+00 
       2.699595254278e-03       1.772584404685e+00 
       2.809034094327e-03       1.835976798317e+00 
       2.919467999818e-03       1.899235598450e+00 
       3.030812641171e-03       1.962288105784e+00 
       3.142991559080e-03       2.025052104526e+00 
       3.255935491967e-03       2.087471666330e+00 
       3.369581727509e-03       2.149490655071e+00 
       3.483873489548e-03       2.211052262329e+00 
       3.598759366763e-03       2.272106792260e+00 
       3.714192786088e-03       2.332613997400e+00 
       3.830131531369e-03       2.392534655635e+00 
       3.946537306183e-03       2.451827146112e+00 
       4.063375338686e-03       2.510466852190e+00 
       4.180614025754e-03       2.568417894198e+00 
       4.298224613405e-03       2.625659552279e+00 
       4.416180910359e-03       2.682166603419e+00 
       4.534459031676e-03       2.737916784837e+00 
       4.653037169509e-03       2.792894843417e+00 
       4.771895388214e-03       2.847084141777e+00 
       4.891015441268e-03       2.900470970107e+00 
       5.010380607654e-03       2.953043004676e+00 
       5.129975545600e-03       3.004790165118e+00 
       5.249786161774e-03       3.055705889930e+00 
       5.369799494223e-03       3.105782555251e+00 
       5.490003607537e-03       3.155015529439e+00 
       5.610387498875e-03       3.203399211170e+00 
       5.730941013670e-03       3.250934712566e+00 
       5.851654769906e-03       3.297620460019e+00 
       5.972520090068e-03       3.343454176012e+00 
       6.093528939880e-03       3.388438350434e+00 
       6.214673873133e-03       3.432574685259e+00 
       6.335947981903e-03       3.475868141074e+00 
       6.457344851613e-03       3.518319509373e+00 
       6.578858520406e-03       3.559933294226e+00 
       6.700483442374e-03       3.600714118588e+00 
       6.822214454238e-03       3.640670587229e+00 
       6.944046745134e-03       3.679804757542e+00 
       7.065975829162e-03       3.718128256818e+00 
       7.187997520434e-03       3.755648814022e+00 
       7.310107910369e-03       3.792369953528e+00 
       7.432303346994e-03       3.828296451548e+00 
       7.554580416073e-03       3.863443051316e+00 
       7.676935923868e-03       3.897819844328e+00 
       7.799366881390e-03       3.931428685284e+00 
       7.921870489981e-03       3.964276199823e+00 
       8.044444128110e-03       3.996384182260e+00 
       8.167085339271e-03       4.027750194318e+00 
       8.289791820870e-03       4.058388465675e+00 
       8.412561414027e-03       4.088311065174e+00 
       8.535392094189e-03       4.117516806383e+00 
       8.658281962499e-03       4.146023864101e+00 
       8.781229237845e-03       4.173837996999e+00 
       8.904232249532e-03       4.200970482978e+00 
       9.027289430517e-03       4.227428484745e+00 
       9.150399311170e-03       4.253219438067e+00 
       9.273560513504e-03       4.278360157030e+00 
       9.396771745844e-03       4.302849648679e+00 
       9.520031797891e-03       4.326696418174e+00 
       9.643339536152e-03       4.349923375690e+00 
       9.766693899711e-03       4.372519958189e+00 
       9.890093896300e-03       4.394505385367e+00 
       1.001353859866e-02       4.415887915971e+00 
       1.013702714118e-02       4.436676846823e+00 
       1.026055871672e-02       4.456870175796e+00 
       1.038413257374e-02       4.476483768760e+00 
       1.050774801356e-02       4.495526207509e+00 
       1.063140438788e-02       4.513997634255e+00 
       1.075510109639e-02       4.531914582897e+00 
       1.087883758462e-02       4.549280555826e+00 
       1.100261334193e-02       4.566099153392e+00 
       1.112642789957e-02       4.582383083141e+00 
       1.125028082899e-02       4.598132628686e+00 
       1.137417174014e-02       4.613364715027e+00 
       1.149810028000e-02       4.628070369599e+00 
       1.162206613114e-02       4.642271743484e+00 
       1.174606901039e-02       4.655962395359e+00 
       1.187010866765e-02       4.669158865787e+00 
       1.199418488471e-02       4.681864322105e+00 
       1.211829747421e-02       4.694078415149e+00 
       1.224244627863e-02       4.705816782969e+00 
       1.236663116941e-02       4.717076119299e+00 
       1.249085204607e-02       4.727875524075e+00 
       1.261510883545e-02       4.738203687370e+00 
       1.273940149094e-02       4.748081430817e+00 
       1.286372999182e-02       4.757503341792e+00 
       1.298809434267e-02       4.766481142249e+00 
       1.311249457272e-02       4.775016995181e+00 
       1.323693073542e-02       4.783118365816e+00 
       1.336140290784e-02       4.790787205088e+00 
       1.348591119034e-02       4.798037949247e+00 
       1.361045570605e-02       4.804865883199e+00 
       1.373503660061e-02       4.811277842774e+00 
       1.385965404174e-02       4.817283315723e+00 
       1.398430821901e-02       4.822884799069e+00 
       1.410899934352e-02       4.828085456323e+00 
       1.423372764771e-02       4.832897009822e+00 
       1.435849338511e-02       4.837318552889e+00 
       1.448329683018e-02       4.841357902025e+00 
       1.460813827812e-02       4.845018445597e+00 
       1.473301804481e-02       4.848304771415e+00 
       1.485793646664e-02       4.851222017128e+00 
       1.498289390044e-02       4.853778077513e+00 
       1.510789072347e-02       4.855974920211e+00 
       1.523292733332e-02       4.857819041569e+00 
       1.535800414793e-02       4.859312598576e+00 
       1.548312160558e-02       4.860459918033e+00 
       1.560828016494e-02       4.861272303518e+00 
       1.573348030509e-02       4.861742718515e+00 
       1.585872252561e-02       4.861896518229e+00 
       1.598400734663e-02       4.861723798280e+00 
       1.610933530897e-02       4.861216004564e+00 
       1.623470697422e-02       4.860398527652e+00 
       1.636012292492e-02       4.859278194607e+00 
       1.648558376469e-02       4.857840669970e+00 
       1.661109011841e-02       4.856102667056e+00 
       1.673664263240e-02       4.854069581138e+00 
       1.686224197463e-02       4.851740862724e+00 
       1.698788883495e-02       4.849119705638e+00 
       1.711358392534e-02       4.846223039093e+00 
       1.723932798012e-02       4.843031170664e+00 
       1.736512175629e-02       4.839586148896e+00 
       1.749096603375e-02       4.835851775071e+00 
       1.761686161566e-02       4.831857780963e+00 
       1.774280932873e-02       4.827589696496e+00 
       1.786881002356e-02       4.823070865537e+00 
       1.799486457501e-02       4.818294836986e+00 
       1.812097388257e-02       4.813269093177e+00 
       1.824713887072e-02       4.807997622168e+00 
       1.837336048938e-02       4.802470227834e+00 
       1.849963971429e-02       4.796721012740e+00 
       1.862597754748e-02       4.790727215307e+00 
       1.875237501771e-02       4.784504025355e+00 
       1.887883318094e-02       4.778056756010e+00 
       1.900535312085e-02       4.771380286009e+00 
       1.913193594933e-02       4.764489724014e+00 
       1.925858280700e-02       4.757373711778e+00 
       1.938529486380e-02       4.750049476765e+00 
       1.951207331950e-02       4.742511579609e+00 
       1.963891940434e-02       4.734773914626e+00 
       1.976583437961e-02       4.726831697312e+00 
       1.989281953829e-02       4.718695356608e+00 
       2.001987620571e-02       4.710361835760e+00 
       2.014700574018e-02       4.701843355941e+00 
       2.027420953374e-02       4.693117630277e+00 
       2.040148901283e-02       4.684233306592e+00 
       2.052884563906e-02       4.675154516718e+00 
       2.065628090997e-02       4.665900563921e+00 
       2.078379635978e-02       4.656461330346e+00 
       2.091139356027e-02       4.646870357694e+00 
       2.103907412157e-02       4.637099100307e+00 
       2.116683969302e-02       4.627171323013e+00 
       2.129469196411e-02       4.617081566530e+00 
       2.142263266535e-02       4.606833121575e+00 
       2.155066356926e-02       4.596421566591e+00 
       2.167878649131e-02       4.585872065368e+00 
       2.180700329099e-02       4.575159470437e+00 
       2.193531587278e-02       4.564310039030e+00 
       2.206372618728e-02       4.553321849477e+00 
       2.219223623229e-02       4.542184243491e+00 
       2.232084805397e-02       4.530925065657e+00 
       2.244956374803e-02       4.519517695660e+00 
       2.257838546090e-02       4.507986278955e+00 
       2.270731539105e-02       4.496327769411e+00 
       2.283635579024e-02       4.484540743280e+00 
       2.296550896486e-02       4.472635211196e+00 
       2.309477727734e-02       4.460614800440e+00 
       2.322416314755e-02       4.448475063901e+00 
       2.335366905427e-02       4.436218772791e+00 
       2.348329753672e-02       4.423855891104e+00 
       2.361305119611e-02       4.411386152960e+00 
       2.374293269725e-02       4.398809572920e+00 
       2.387294477028e-02       4.386130454366e+00 
       2.400309021230e-02       4.373351891278e+00 
       2.413337188923e-02       4.360472527101e+00 
       2.426379273761e-02       4.347504956651e+00 
       2.439435576651e-02       4.334442151409e+00 
       2.452506405949e-02       4.321289399733e+00 
       2.465592077667e-02       4.308049909550e+00 
       2.478692915676e-02       4.294726351747e+00 
       2.491809251927e-02       4.281318802309e+00 
       2.504941426679e-02       4.267832060190e+00 
       2.518089788722e-02       4.254269350255e+00 
       2.531254695627e-02       4.240637124965e+00 
       2.544436513988e-02       4.226919148386e+00 
       2.557635619681e-02       4.213138052255e+00 
       2.570852398133e-02       4.199286085615e+00 
       2.584087244594e-02       4.185368047591e+00 
       2.597340564424e-02       4.171390604375e+00 
       2.610612773389e-02       4.157348062304e+00 
       2.623904297966e-02       4.143244471086e+00 
       2.637215575665e-02       4.129085570663e+00 
       2.650547055353e-02       4.114870405991e+00 
       2.663899197597e-02       4.100601589598e+00 
       2.677272475021e-02       4.086283218493e+00 
       2.690667372668e-02       4.071912777975e+00 
       2.704084388387e-02       4.057496269249e+00 
       2.717524033223e-02       4.043033341648e+00 
       2.730986831833e-02       4.028526365945e+00 
       2.744473322907e-02       4.013977667008e+00 
       2.757984059617e-02       3.999390018033e+00 
       2.771519610072e-02       3.984761781643e+00 
       2.785080557800e-02       3.970097845905e+00 
       2.798667502244e-02       3.955399144255e+00 
       2.812281059279e-02       3.940666225450e+00 
       2.825921861753e-02       3.925904064868e+00 
       2.839590560043e-02       3.911110545129e+00 
       2.853287822642e-02       3.896288628752e+00 
       2.867014336763e-02       3.881439927759e+00 
       2.880770808975e-02       3.866566597208e+00 
       2.894557965859e-02       3.851668787383e+00 
       2.908376554696e-02       3.836748561422e+00 
       2.922227344183e-02       3.821809213902e+00 
       2.936111125182e-02       3.806849841511e+00 
       2.950028711498e-02       3.791870474946e+00 
       2.963980940692e-02       3.776876409272e+00 
       2.977968674934e-02       3.761866244803e+00 
       2.991992801888e-02       3.746842800892e+00 
       3.006054235642e-02       3.731807604265e+00 
       3.020153917674e-02       3.716757924670e+00 
       3.034292817872e-02       3.701700615228e+00 
       3.048471935591e-02       3.686633216421e+00 
       3.062692300766e-02       3.671559696063e+00 
       3.076954975073e-02       3.656476897037e+00 
       3.091261053153e-02       3.641391075949e+00 
       3.105611663883e-02       3.626296741904e+00 
       3.120007971717e-02       3.611200677558e+00 
       3.134451178094e-02       3.596103316161e+00 
       3.148942522908e-02       3.581003126755e+00 
       3.163483286058e-02       3.565901544866e+00 
       3.178074789075e-02       3.550801893170e+00 
       3.192718396829e-02       3.535700854587e+00 
       3.207415519325e-02       3.520604765186e+00 
       3.222167613596e-02       3.505509515279e+00 
       3.236976185693e-02       3.490417183432e+00 
       3.251842792776e-02       3.475330793463e+00 
       3.266769045326e-02       3.460248178297e+00 
       3.281756609471e-02       3.445172351044e+00 
       3.296807209441e-02       3.430102417267e+00 
       3.311922630162e-02       3.415040129530e+00 
       3.327104719986e-02       3.399983038102e+00 
       3.342355393590e-02       3.384935949016e+00 
       3.357676635028e-02       3.369897432028e+00 
       3.373070500968e-02       3.354865502004e+00 
       3.388539124115e-02       3.339845212502e+00 
       3.404084716838e-02       3.324833330452e+00 
       3.419709575014e-02       3.309831527082e+00 
       3.435416082110e-02       3.294843774485e+00 
       3.451206713503e-02       3.279865625552e+00 
       3.467084041087e-02       3.264898176031e+00 
       3.483050738153e-02       3.249941322643e+00 
       3.499109584590e-02       3.234995920418e+00 
       3.515263472420e-02       3.220064646684e+00 
       3.531515411689e-02       3.205143425203e+00 
       3.547868536756e-02       3.190235500718e+00 
       3.564326112997e-02       3.175337604888e+00 
       3.580891543966e-02       3.160452862139e+00 
       3.597568379052e-02       3.145581406284e+00 
       3.614360321665e-02       3.130720896110e+00 
       3.631271238005e-02       3.115870921000e+00 
       3.648305166451e-02       3.101034528990e+00 
       3.665466327647e-02       3.086210321077e+00 
       3.682759135313e-02       3.071395804466e+00 
       3.700188207881e-02       3.056590798867e+00 
       3.717758380999e-02       3.041797349017e+00 
       3.735474721006e-02       3.027013482625e+00 
       3.753342539455e-02       3.012241782948e+00 
       3.771367408789e-02       2.997476099730e+00 
       3.789555179276e-02       2.982720511285e+00 
       3.807911997330e-02       2.967972511859e+00 
       3.826444325354e-02       2.953231869500e+00 
       3.845158963247e-02       2.938497645115e+00 
       3.864063071773e-02       2.923768111093e+00 
       3.883164197941e-02       2.909044603682e+00 
       3.902470302655e-02       2.894323245909e+00 
       3.921989790844e-02       2.879606499274e+00 
       3.941731544346e-02       2.864889659444e+00 
       3.961704957874e-02       2.850173456923e+00 
       3.981919978381e-02       2.835456861608e+00 
       4.002387148228e-02       2.820738045810e+00 
       4.023117652610e-02       2.806016326981e+00 
       4.044123371716e-02       2.791288527888e+00 
       4.065416938230e-02       2.776553452039e+00 
       4.087011800810e-02       2.761811886903e+00 
       4.108922294299e-02       2.747058692282e+00 
       4.131163717545e-02       2.732291988097e+00 
       4.153752419801e-02       2.717509408406e+00 
       4.176705896879e-02       2.702713140503e+00 
       4.200042898355e-02       2.687894217656e+00 
       4.223783547389e-02       2.673052526837e+00 
       4.247949474925e-02       2.658190721915e+00 
       4.272563970381e-02       2.643296066103e+00 
       4.297652151252e-02       2.628369317965e+00 
       4.323241154501e-02       2.613408910741e+00 
       4.349360353122e-02       2.598411387373e+00 
       4.376041601845e-02       2.583369109733e+00 
       4.403319516735e-02       2.568279662041e+00 
       4.431231794305e-02       2.553138567060e+00 
       4.459819576870e-02       2.537940008994e+00 
       4.489127872208e-02       2.522682785006e+00 
       4.519206037240e-02       2.507352823766e+00 
       4.550108337449e-02       2.491944810604e+00 
       4.581894596305e-02       2.476458850628e+00 
       4.614630952020e-02       2.460880203792e+00 
       4.648390742907e-02       2.445199478588e+00 
       4.683255547441e-02       2.429411256654e+00 
       4.719316411280e-02       2.413508663714e+00 
       4.756675301229e-02       2.397475517106e+00 
       4.795446835950e-02       2.381301392986e+00 
       4.835760355679e-02       2.364982192185e+00 
       4.877762409092e-02       2.348461573821e+00 
       4.921619755703e-02       2.331730816668e+00 
       4.967523007970e-02       2.314781746176e+00 
       5.015691069999e-02       2.297576316564e+00 
       5.066376571099e-02       2.280090163661e+00 
       5.119872543759e-02       2.262282675823e+00 
       5.176520658204e-02       2.244107585898e+00 
       5.236721398511e-02       2.225510518921e+00 
       5.300946643626e-02       2.206416846202e+00 
       5.369755186298e-02       2.186743377447e+00 
       5.443811750858e-02       2.166378509062e+00 
       5.523909986108e-02       2.145177799812e+00 
       5.610999569786e-02       2.122956855605e+00 
       5.706216693470e-02       2.099467101423e+00 
       5.810915311482e-02       2.074376531769e+00 
