# Matter power spectrum P(k) at redshift z=99
# for k=1.00899e-05 to 203.102 h/Mpc,
# number of wavenumbers equal to 845
#    1:k (h/Mpc)              2:P (Mpc/h)^3        
       1.008985923385e-05       8.602971822648e-03 
       2.251775554930e-05       1.859268125585e-02 
       3.498636120606e-05       2.838305140532e-02 
       4.752690065129e-05       3.808691122629e-02 
       6.017107953816e-05       4.776644865136e-02 
       7.295134796828e-05       5.746702167551e-02 
       8.590117159567e-05       6.722658229310e-02 
       9.905531396721e-05       7.707950364571e-02 
       1.124501335013e-04       8.705850723750e-02 
       1.261238985365e-04       9.719580668118e-02 
       1.401171238971e-04       1.075238795389e-01 
       1.544729323969e-04       1.180760460507e-01 
       1.692374446017e-04       1.288869580624e-01 
       1.844601999509e-04       1.399930254306e-01 
       2.001946119308e-04       1.514328247668e-01 
       2.164984593225e-04       1.632474963914e-01 
       2.334344144963e-04       1.754811423533e-01 
       2.510706081659e-04       1.881812324291e-01 
       2.694812277618e-04       2.013990088067e-01 
       2.887471434300e-04       2.151899074957e-01 
       3.089565513521e-04       2.296139667006e-01 
       3.302056183397e-04       2.447362220598e-01 
       3.525991041884e-04       2.606270805510e-01 
       3.762509288441e-04       2.773626266016e-01 
       4.012846398935e-04       2.950248546973e-01 
       4.278337223492e-04       3.137017707154e-01 
       4.560416776520e-04       3.334873115289e-01 
       4.860617833901e-04       3.544810357402e-01 
       5.180564314341e-04       3.767874957964e-01 
       5.521959331310e-04       4.005152357705e-01 
       5.886566802046e-04       4.257753411983e-01 
       6.276185644258e-04       4.526794595214e-01 
       6.692615935926e-04       4.813372935423e-01 
       7.137617004578e-04       5.118535570283e-01 
       7.612858262925e-04       5.443244624347e-01 
       8.119864673565e-04       5.788338924093e-01 
       8.659959883789e-04       6.154494972984e-01 
       9.234211117495e-04       6.542189706922e-01 
       9.843380585498e-04       6.951668808209e-01 
       1.048788822721e-03       7.382923401137e-01 
       1.116778987109e-03       7.835678371026e-01 
       1.188277341859e-03       8.309393322572e-01 
       1.263217364320e-03       8.803278754039e-01 
       1.341500404014e-03       9.316405743379e-01 
       1.423000230117e-03       9.847505623866e-01 
       1.507568477514e-03       1.039522351689e+00 
       1.595040487398e-03       1.095809765936e+00 
       1.685241075052e-03       1.153460135211e+00 
       1.777989849946e-03       1.212318079721e+00 
       1.873105833493e-03       1.272228787230e+00 
       1.970411241375e-03       1.333040708627e+00 
       2.069734401352e-03       1.394607523294e+00 
       2.170911854437e-03       1.456789665309e+00 
       2.273789735608e-03       1.519455304861e+00 
       2.378224553543e-03       1.582480759146e+00 
       2.484083493407e-03       1.645750857036e+00 
       2.591244358870e-03       1.709158623129e+00 
       2.699595254824e-03       1.772605552173e+00 
       2.809034094888e-03       1.836000687405e+00 
       2.919468000394e-03       1.899260684055e+00 
       3.030812641761e-03       1.962308986197e+00 
       3.142991559685e-03       2.025075934238e+00 
       3.255935492585e-03       2.087497382118e+00 
       3.369581728141e-03       2.149515198642e+00 
       3.483873490193e-03       2.211076216104e+00 
       3.598759367421e-03       2.272132680917e+00 
       3.714192786759e-03       2.332640223695e+00 
       3.830131532053e-03       2.392559621564e+00 
       3.946537306880e-03       2.451854531124e+00 
       4.063375339396e-03       2.510493324102e+00 
       4.180614026477e-03       2.568446153900e+00 
       4.298224614140e-03       2.625687872704e+00 
       4.416180911106e-03       2.682195021396e+00 
       4.534459032436e-03       2.737946652126e+00 
       4.653037170281e-03       2.792925183441e+00 
       4.771895388998e-03       2.847114244139e+00 
       4.891015442065e-03       2.900501010408e+00 
       5.010380608463e-03       2.953073370630e+00 
       5.129975546421e-03       3.004820666481e+00 
       5.249786162607e-03       3.055735960944e+00 
       5.369799495068e-03       3.105811882158e+00 
       5.490003608392e-03       3.155044621625e+00 
       5.610387499743e-03       3.203429862630e+00 
       5.730941014549e-03       3.250964879201e+00 
       5.851654770797e-03       3.297648968289e+00 
       5.972520090970e-03       3.343482816547e+00 
       6.093528940795e-03       3.388466674839e+00 
       6.214673874059e-03       3.432602722757e+00 
       6.335947982840e-03       3.475894312371e+00 
       6.457344852562e-03       3.518343864732e+00 
       6.578858521367e-03       3.559957554189e+00 
       6.700483443346e-03       3.600739944088e+00 
       6.822214455222e-03       3.640695498285e+00 
       6.944046746129e-03       3.679831619149e+00 
       7.065975830168e-03       3.718155343809e+00 
       7.187997521452e-03       3.755671785642e+00 
       7.310107911398e-03       3.792391417270e+00 
       7.432303348035e-03       3.828321374446e+00 
       7.554580417124e-03       3.863469525796e+00 
       7.676935924931e-03       3.897842494277e+00 
       7.799366882465e-03       3.931450913051e+00 
       7.921870491067e-03       3.964303560167e+00 
       8.044444129208e-03       3.996408949598e+00 
       8.167085340379e-03       4.027776493916e+00 
       8.289791821990e-03       4.058414261178e+00 
       8.412561415158e-03       4.088333088593e+00 
       8.535392095331e-03       4.117541338912e+00 
       8.658281963652e-03       4.146048013393e+00 
       8.781229239010e-03       4.173861598332e+00 
       8.904232250708e-03       4.200993930841e+00 
       9.027289431704e-03       4.227451652371e+00 
       9.150399312368e-03       4.253243979518e+00 
       9.273560514714e-03       4.278380698135e+00 
       9.396771747065e-03       4.302870175139e+00 
       9.520031799123e-03       4.326720687129e+00 
       9.643339537395e-03       4.349942130924e+00 
       9.766693900965e-03       4.372540627398e+00 
       9.890093897566e-03       4.394526988770e+00 
       1.001353859994e-02       4.415909292903e+00 
       1.013702714247e-02       4.436693280826e+00 
       1.026055871802e-02       4.456888345054e+00 
       1.038413257505e-02       4.476501780368e+00 
       1.050774801489e-02       4.495544442385e+00 
       1.063140438921e-02       4.514016977430e+00 
       1.075510109773e-02       4.531934666058e+00 
       1.087883758598e-02       4.549299594511e+00 
       1.100261334330e-02       4.566118519209e+00 
       1.112642790095e-02       4.582400135665e+00 
       1.125028083038e-02       4.598151760171e+00 
       1.137417174154e-02       4.613378833667e+00 
       1.149810028141e-02       4.628089721144e+00 
       1.162206613256e-02       4.642287568988e+00 
       1.174606901183e-02       4.655981887459e+00 
       1.187010866910e-02       4.669177693646e+00 
       1.199418488617e-02       4.681881722244e+00 
       1.211829747567e-02       4.694098432156e+00 
       1.224244628010e-02       4.705834905234e+00 
       1.236663117090e-02       4.717099053021e+00 
       1.249085204757e-02       4.727892976839e+00 
       1.261510883696e-02       4.738224998033e+00 
       1.273940149246e-02       4.748098006675e+00 
       1.286372999336e-02       4.757521986522e+00 
       1.298809434421e-02       4.766498854653e+00 
       1.311249457428e-02       4.775034238010e+00 
       1.323693073698e-02       4.783134254279e+00 
       1.336140290942e-02       4.790805109203e+00 
       1.348591119193e-02       4.798052554939e+00 
       1.361045570765e-02       4.804880149358e+00 
       1.373503660222e-02       4.811293543235e+00 
       1.385965404336e-02       4.817299284888e+00 
       1.398430822064e-02       4.822900435701e+00 
       1.410899934517e-02       4.828104628175e+00 
       1.423372764937e-02       4.832913139663e+00 
       1.435849338678e-02       4.837336007208e+00 
       1.448329683185e-02       4.841373765885e+00 
       1.460813827981e-02       4.845032955649e+00 
       1.473301804651e-02       4.848319403618e+00 
       1.485793646835e-02       4.851239923031e+00 
       1.498289390217e-02       4.853793092560e+00 
       1.510789072521e-02       4.855991187090e+00 
       1.523292733507e-02       4.857833605945e+00 
       1.535800414968e-02       4.859326743562e+00 
       1.548312160735e-02       4.860478125210e+00 
       1.560828016672e-02       4.861290833939e+00 
       1.573348030688e-02       4.861764586025e+00 
       1.585872252741e-02       4.861909559800e+00 
       1.598400734844e-02       4.861730334981e+00 
       1.610933531079e-02       4.861228840446e+00 
       1.623470697605e-02       4.860414224317e+00 
       1.636012292677e-02       4.859288976636e+00 
       1.648558376655e-02       4.857853308164e+00 
       1.661109012028e-02       4.856117037793e+00 
       1.673664263428e-02       4.854084552634e+00 
       1.686224197652e-02       4.851754878793e+00 
       1.698788883685e-02       4.849139366989e+00 
       1.711358392725e-02       4.846235500871e+00 
       1.723932798205e-02       4.843054462955e+00 
       1.736512175823e-02       4.839595476524e+00 
       1.749096603570e-02       4.835863007814e+00 
       1.761686161762e-02       4.831864041743e+00 
       1.774280933070e-02       4.827607878622e+00 
       1.786881002554e-02       4.823083617069e+00 
       1.799486457700e-02       4.818311629069e+00 
       1.812097388457e-02       4.813283712350e+00 
       1.824713887274e-02       4.808007310627e+00 
       1.837336049141e-02       4.802490131501e+00 
       1.849963971633e-02       4.796735014393e+00 
       1.862597754953e-02       4.790740109528e+00 
       1.875237501977e-02       4.784516329330e+00 
       1.887883318301e-02       4.778063857035e+00 
       1.900535312294e-02       4.771387975213e+00 
       1.913193595143e-02       4.764495128544e+00 
       1.925858280911e-02       4.757384972354e+00 
       1.938529486592e-02       4.750058065021e+00 
       1.951207332163e-02       4.742525536103e+00 
       1.963891940648e-02       4.734784690229e+00 
       1.976583438176e-02       4.726850815023e+00 
       1.989281954046e-02       4.718707331028e+00 
       2.001987620788e-02       4.710373483114e+00 
       2.014700574237e-02       4.701852159806e+00 
       2.027420953594e-02       4.693138535567e+00 
       2.040148901504e-02       4.684242179749e+00 
       2.052884564128e-02       4.675168398606e+00 
       2.065628091220e-02       4.665910894163e+00 
       2.078379636203e-02       4.656484737711e+00 
       2.091139356253e-02       4.646886527536e+00 
       2.103907412384e-02       4.637113534105e+00 
       2.116683969530e-02       4.627187452503e+00 
       2.129469196640e-02       4.617089572264e+00 
       2.142263266765e-02       4.606833559643e+00 
       2.155066357157e-02       4.596434385646e+00 
       2.167878649364e-02       4.585885366297e+00 
       2.180700329333e-02       4.575172867625e+00 
       2.193531587513e-02       4.564324474783e+00 
       2.206372618964e-02       4.553329103846e+00 
       2.219223623466e-02       4.542196887703e+00 
       2.232084805636e-02       4.530933414457e+00 
       2.244956375042e-02       4.519531774039e+00 
       2.257838546331e-02       4.507996047438e+00 
       2.270731539347e-02       4.496340832625e+00 
       2.283635579267e-02       4.484556780392e+00 
       2.296550896730e-02       4.472641310460e+00 
       2.309477727980e-02       4.460627055282e+00 
       2.322416315002e-02       4.448487594843e+00 
       2.335366905675e-02       4.436235589459e+00 
       2.348329753921e-02       4.423871159636e+00 
       2.361305119861e-02       4.411395976883e+00 
       2.374293269977e-02       4.398817613028e+00 
       2.387294477280e-02       4.386141984749e+00 
       2.400309021484e-02       4.373359498171e+00 
       2.413337189178e-02       4.360488842293e+00 
       2.426379274017e-02       4.347520966753e+00 
       2.439435576908e-02       4.334451104403e+00 
       2.452506406208e-02       4.321299455617e+00 
       2.465592077927e-02       4.308059290472e+00 
       2.478692915937e-02       4.294742842453e+00 
       2.491809252189e-02       4.281330598895e+00 
       2.504941426942e-02       4.267838302371e+00 
       2.518089788986e-02       4.254279596500e+00 
       2.531254695892e-02       4.240641965171e+00 
       2.544436514254e-02       4.226934344665e+00 
       2.557635619949e-02       4.213156834341e+00 
       2.570852398403e-02       4.199299143248e+00 
       2.584087244865e-02       4.185387589238e+00 
       2.597340564696e-02       4.171396635863e+00 
       2.610612773662e-02       4.157363690297e+00 
       2.623904298241e-02       4.143256139315e+00 
       2.637215575941e-02       4.129096019119e+00 
       2.650547055630e-02       4.114886573955e+00 
       2.663899197875e-02       4.100609211517e+00 
       2.677272475300e-02       4.086294522408e+00 
       2.690667372948e-02       4.071926714609e+00 
       2.704084388668e-02       4.057500581925e+00 
       2.717524033506e-02       4.043040182061e+00 
       2.730986832117e-02       4.028542232081e+00 
       2.744473323193e-02       4.013994760435e+00 
       2.757984059904e-02       3.999394428155e+00 
       2.771519610360e-02       3.984770734631e+00 
       2.785080558089e-02       3.970117171772e+00 
       2.798667502534e-02       3.955407077417e+00 
       2.812281059571e-02       3.940682849252e+00 
       2.825921862046e-02       3.925909823452e+00 
       2.839590560337e-02       3.911125091161e+00 
       2.853287822937e-02       3.896302152691e+00 
       2.867014337060e-02       3.881447466313e+00 
       2.880770809274e-02       3.866574480641e+00 
       2.894557966159e-02       3.851674241277e+00 
       2.908376554997e-02       3.836755720459e+00 
       2.922227344485e-02       3.821822294968e+00 
       2.936111125486e-02       3.806862422966e+00 
       2.950028711803e-02       3.791882247089e+00 
       2.963980940998e-02       3.776889232793e+00 
       2.977968675242e-02       3.761875502711e+00 
       2.991992802197e-02       3.746852119788e+00 
       3.006054235952e-02       3.731819433728e+00 
       3.020153917986e-02       3.716768697274e+00 
       3.034292818185e-02       3.701711554581e+00 
       3.048471935906e-02       3.686640183097e+00 
       3.062692301082e-02       3.671570431847e+00 
       3.076954975391e-02       3.656490281598e+00 
       3.091261053472e-02       3.641405466031e+00 
       3.105611664203e-02       3.626312837793e+00 
       3.120007972039e-02       3.611218663731e+00 
       3.134451178417e-02       3.596106727119e+00 
       3.148942523232e-02       3.581016559558e+00 
       3.163483286384e-02       3.565912071570e+00 
       3.178074789403e-02       3.550817276383e+00 
       3.192718397158e-02       3.535709912434e+00 
       3.207415519655e-02       3.520613444318e+00 
       3.222167613928e-02       3.505517991498e+00 
       3.236976186026e-02       3.490423279466e+00 
       3.251842793110e-02       3.475337565412e+00 
       3.266769045662e-02       3.460246441554e+00 
       3.281756609808e-02       3.445181509592e+00 
       3.296807209781e-02       3.430115757708e+00 
       3.311922630503e-02       3.415039677636e+00 
       3.327104720329e-02       3.400002027056e+00 
       3.342355393934e-02       3.384949921101e+00 
       3.357676635374e-02       3.369895432490e+00 
       3.373070501315e-02       3.354876858803e+00 
       3.388539124463e-02       3.339857298047e+00 
       3.404084717188e-02       3.324847080168e+00 
       3.419709575366e-02       3.309842328574e+00 
       3.435416082463e-02       3.294861321666e+00 
       3.451206713858e-02       3.279868720097e+00 
       3.467084041444e-02       3.264916399023e+00 
       3.483050738512e-02       3.249943168173e+00 
       3.499109584951e-02       3.234996389037e+00 
       3.515263472782e-02       3.220078361092e+00 
       3.531515412053e-02       3.205154399515e+00 
       3.547868537122e-02       3.190244581953e+00 
       3.564326113364e-02       3.175348352603e+00 
       3.580891544335e-02       3.160466886848e+00 
       3.597568379423e-02       3.145588236445e+00 
       3.614360322038e-02       3.130735022653e+00 
       3.631271238380e-02       3.115878566566e+00 
       3.648305166828e-02       3.101034624341e+00 
       3.665466328025e-02       3.086216540804e+00 
       3.682759135694e-02       3.071408292984e+00 
       3.700188208264e-02       3.056602985025e+00 
       3.717758381384e-02       3.041810806456e+00 
       3.735474721393e-02       3.027029668040e+00 
       3.753342539844e-02       3.012259474457e+00 
       3.771367409180e-02       2.997479276050e+00 
       3.789555179669e-02       2.982723320926e+00 
       3.807911997726e-02       2.967976598082e+00 
       3.826444325751e-02       2.953242026150e+00 
       3.845158963647e-02       2.938508622915e+00 
       3.864063072175e-02       2.923782370360e+00 
       3.883164198345e-02       2.909055283392e+00 
       3.902470303062e-02       2.894335547751e+00 
       3.921989791253e-02       2.879617889217e+00 
       3.941731544758e-02       2.864898908036e+00 
       3.961704958289e-02       2.850181432694e+00 
       3.981919978798e-02       2.835467077043e+00 
       4.002387148648e-02       2.820753394532e+00 
       4.023117653032e-02       2.806028809086e+00 
       4.044123372141e-02       2.791298633609e+00 
       4.065416938658e-02       2.776564191850e+00 
       4.087011801240e-02       2.761822607986e+00 
       4.108922294733e-02       2.747070769601e+00 
       4.131163717982e-02       2.732296943523e+00 
       4.153752420241e-02       2.717515802773e+00 
       4.176705897322e-02       2.702722165063e+00 
       4.200042898802e-02       2.687898095231e+00 
       4.223783547839e-02       2.673064554441e+00 
       4.247949475379e-02       2.658199706547e+00 
       4.272563970839e-02       2.643305730188e+00 
       4.297652151713e-02       2.628382635595e+00 
       4.323241154967e-02       2.613419952262e+00 
       4.349360353592e-02       2.598421754198e+00 
       4.376041602319e-02       2.583377323291e+00 
       4.403319517213e-02       2.568289419124e+00 
       4.431231794788e-02       2.553150767751e+00 
       4.459819577357e-02       2.537952923685e+00 
       4.489127872701e-02       2.522692038920e+00 
       4.519206037738e-02       2.507357064643e+00 
       4.550108337953e-02       2.491980151947e+00 
       4.581894596815e-02       2.476477270028e+00 
       4.614630952536e-02       2.460897027486e+00 
       4.648390743429e-02       2.445209689505e+00 
       4.683255547970e-02       2.429424707701e+00 
       4.719316411816e-02       2.413520231012e+00 
       4.756675301773e-02       2.397475112182e+00 
       4.795446836503e-02       2.381309147521e+00 
       4.835760356241e-02       2.364982195386e+00 
       4.877762409663e-02       2.348475348238e+00 
       4.921619756285e-02       2.331757956337e+00 
       4.967523008562e-02       2.314808380159e+00 
       5.015691070604e-02       2.297613199362e+00 
       5.066376571717e-02       2.280139263564e+00 
       5.119872544391e-02       2.262330719329e+00 
       5.176520658853e-02       2.244169324811e+00 
       5.236721399178e-02       2.225582942693e+00 
       5.300946644312e-02       2.206499036070e+00 
       5.369755187007e-02       2.186831143024e+00 
       5.443811751592e-02       2.166476109852e+00 
       5.523909986870e-02       2.145285524646e+00 
       5.610999570581e-02       2.123073552712e+00 
       5.706216694303e-02       2.099586501731e+00 
       5.810915312358e-02       2.074507567347e+00 
