# Matter power spectrum P(k) at redshift z=99
# for k=1.00899e-05 to 203.102 h/Mpc,
# number of wavenumbers equal to 845
#    1:k (h/Mpc)              2:P (Mpc/h)^3        
       1.008985923385e-05       8.603031980680e-03 
       2.251775554930e-05       1.859281126896e-02 
       3.498636120606e-05       2.838324987958e-02 
       4.752690065129e-05       3.808717755677e-02 
       6.017107953816e-05       4.776678266798e-02 
       7.295134796828e-05       5.746742352535e-02 
       8.590117159567e-05       6.722705238867e-02 
       9.905531396721e-05       7.708004263983e-02 
       1.124501335013e-04       8.705911601183e-02 
       1.261238985365e-04       9.719648634265e-02 
       1.401171238971e-04       1.075246314215e-01 
       1.544729323969e-04       1.180768717215e-01 
       1.692374446017e-04       1.288878593307e-01 
       1.844601999509e-04       1.399940043603e-01 
       2.001946119308e-04       1.514338836916e-01 
       2.164984593225e-04       1.632486379328e-01 
       2.334344144963e-04       1.754823694409e-01 
       2.510706081659e-04       1.881825483246e-01 
       2.694812277618e-04       2.014004171303e-01 
       2.887471434300e-04       2.151914122549e-01 
       3.089565513521e-04       2.296155723230e-01 
       3.302056183397e-04       2.447379334276e-01 
       3.525991041884e-04       2.606289030389e-01 
       3.762509288441e-04       2.773645661162e-01 
       4.012846398935e-04       2.950269177186e-01 
       4.278337223492e-04       3.137039643388e-01 
       4.560416776520e-04       3.334896435067e-01 
       4.860617833901e-04       3.544835145209e-01 
       5.180564314341e-04       3.767901305596e-01 
       5.521959331310e-04       4.005180364547e-01 
       5.886566802046e-04       4.257783185189e-01 
       6.276185644258e-04       4.526826249744e-01 
       6.692615935926e-04       4.813406593910e-01 
       7.137617004578e-04       5.118571362681e-01 
       7.612858262925e-04       5.443282687339e-01 
       8.119864673565e-04       5.788379400226e-01 
       8.659959883789e-04       6.154538009536e-01 
       9.234211117495e-04       6.542235454508e-01 
       9.843380585498e-04       6.951717419159e-01 
       1.048788822721e-03       7.382975027720e-01 
       1.116778987109e-03       7.835733163589e-01 
       1.188277341859e-03       8.309451427681e-01 
       1.263217364320e-03       8.803340312738e-01 
       1.341500404014e-03       9.316470890219e-01 
       1.423000230117e-03       9.847574484525e-01 
       1.507568477514e-03       1.039529620757e+00 
       1.595040487398e-03       1.095817428605e+00 
       1.685241075052e-03       1.153468201011e+00 
       1.777989849946e-03       1.212326557096e+00 
       1.873105833493e-03       1.272237683541e+00 
       1.970411241375e-03       1.333050030177e+00 
       2.069734401352e-03       1.394617275361e+00 
       2.170911854437e-03       1.456799852195e+00 
       2.273789735608e-03       1.519465929948e+00 
       2.378224553543e-03       1.582491824950e+00 
       2.484083493407e-03       1.645762365266e+00 
       2.591244358870e-03       1.709170574749e+00 
       2.699595254824e-03       1.772617947455e+00 
       2.809034094888e-03       1.836013525988e+00 
       2.919468000394e-03       1.899273964993e+00 
       3.030812641761e-03       1.962322708009e+00 
       3.142991559685e-03       2.025090094957e+00 
       3.255935492585e-03       2.087511979327e+00 
       3.369581728141e-03       2.149530229519e+00 
       3.483873490193e-03       2.211091677453e+00 
       3.598759367421e-03       2.272148569211e+00 
       3.714192786759e-03       2.332656535091e+00 
       3.830131532053e-03       2.392576351956e+00 
       3.946537306880e-03       2.451871676142e+00 
       4.063375339396e-03       2.510510879157e+00 
       4.180614026477e-03       2.568464114198e+00 
       4.298224614140e-03       2.625706233272e+00 
       4.416180911106e-03       2.682213777087e+00 
       4.534459032436e-03       2.737965797663e+00 
       4.653037170281e-03       2.792944713417e+00 
       4.771895388998e-03       2.847134153037e+00 
       4.891015442065e-03       2.900521292621e+00 
       5.010380608463e-03       2.953094020446e+00 
       5.129975546421e-03       3.004841678141e+00 
       5.249786162607e-03       3.055757328627e+00 
       5.369799495068e-03       3.105833599996e+00 
       5.490003608392e-03       3.155066683720e+00 
       5.610387499743e-03       3.203452263130e+00 
       5.730941014549e-03       3.250987612012e+00 
       5.851654770797e-03       3.297672027534e+00 
       5.972520090970e-03       3.343506196280e+00 
       6.093528940795e-03       3.388490369110e+00 
       6.214673874059e-03       3.432626725649e+00 
       6.335947982840e-03       3.475918617972e+00 
       6.457344852562e-03       3.518368467153e+00 
       6.578858521367e-03       3.559982447586e+00 
       6.700483443346e-03       3.600765122617e+00 
       6.822214455222e-03       3.640720956222e+00 
       6.944046746129e-03       3.679857350735e+00 
       7.065975830168e-03       3.718181343362e+00 
       7.187997521452e-03       3.755698047516e+00 
       7.310107911398e-03       3.792417935892e+00 
       7.432303348035e-03       3.828348144295e+00 
       7.554580417124e-03       3.863496541404e+00 
       7.676935924931e-03       3.897869750166e+00 
       7.799366882465e-03       3.931478403900e+00 
       7.921870491067e-03       3.964331280713e+00 
       8.044444129208e-03       3.996436894728e+00 
       8.167085340379e-03       4.027804658202e+00 
       8.289791821990e-03       4.058442639833e+00 
       8.412561415158e-03       4.088361676436e+00 
       8.535392095331e-03       4.117570130973e+00 
       8.658281963652e-03       4.146077004875e+00 
       8.781229239010e-03       4.173890784169e+00 
       8.904232250708e-03       4.201023306513e+00 
       9.027289431704e-03       4.227481212888e+00 
       9.150399312368e-03       4.253273720365e+00 
       9.273560514714e-03       4.278410614724e+00 
       9.396771747065e-03       4.302900262247e+00 
       9.520031799123e-03       4.326750941681e+00 
       9.643339537395e-03       4.349972547925e+00 
       9.766693900965e-03       4.372571196783e+00 
       9.890093897566e-03       4.394557717385e+00 
       1.001353859994e-02       4.415940170991e+00 
       1.013702714247e-02       4.436724304217e+00 
       1.026055871802e-02       4.456919509632e+00 
       1.038413257505e-02       4.476533087316e+00 
       1.050774801489e-02       4.495575877193e+00 
       1.063140438921e-02       4.514048553220e+00 
       1.075510109773e-02       4.531966355272e+00 
       1.087883758598e-02       4.549331404912e+00 
       1.100261334330e-02       4.566150447370e+00 
       1.112642790095e-02       4.582432184432e+00 
       1.125028083038e-02       4.598183912249e+00 
       1.137417174154e-02       4.613411092180e+00 
       1.149810028141e-02       4.628122082487e+00 
       1.162206613256e-02       4.642319929666e+00 
       1.174606901183e-02       4.656014443764e+00 
       1.187010866910e-02       4.669210342159e+00 
       1.199418488617e-02       4.681915255381e+00 
       1.211829747567e-02       4.694131254855e+00 
       1.224244628010e-02       4.705869018173e+00 
       1.236663117090e-02       4.717132036473e+00 
       1.249085204757e-02       4.727926035729e+00 
       1.261510883696e-02       4.738258129094e+00 
       1.273940149246e-02       4.748131206734e+00 
       1.286372999336e-02       4.757555252416e+00 
       1.298809434421e-02       4.766530943388e+00 
       1.311249457428e-02       4.775067316237e+00 
       1.323693073698e-02       4.783167698629e+00 
       1.336140290942e-02       4.790838607548e+00 
       1.348591119193e-02       4.798086104028e+00 
       1.361045570765e-02       4.804913746053e+00 
       1.373503660222e-02       4.811327184896e+00 
       1.385965404336e-02       4.817332968409e+00 
       1.398430822064e-02       4.822934453733e+00 
       1.410899934517e-02       4.828138386800e+00 
       1.423372764937e-02       4.832946932185e+00 
       1.435849338678e-02       4.837369554652e+00 
       1.448329683185e-02       4.841407617452e+00 
       1.460813827981e-02       4.845066832735e+00 
       1.473301804651e-02       4.848355008830e+00 
       1.485793646835e-02       4.851273843550e+00 
       1.498289390217e-02       4.853827030742e+00 
       1.510789072521e-02       4.856025140585e+00 
       1.523292733507e-02       4.857867572262e+00 
       1.535800414968e-02       4.859360394349e+00 
       1.548312160735e-02       4.860512109896e+00 
       1.560828016672e-02       4.861324824249e+00 
       1.573348030688e-02       4.861796421052e+00 
       1.585872252741e-02       4.861942846693e+00 
       1.598400734844e-02       4.861764752814e+00 
       1.610933531079e-02       4.861262830064e+00 
       1.623470697605e-02       4.860448208175e+00 
       1.636012292677e-02       4.859322580699e+00 
       1.648558376655e-02       4.857887273982e+00 
       1.661109012028e-02       4.856150991403e+00 
       1.673664263428e-02       4.854115481396e+00 
       1.686224197652e-02       4.851789124799e+00 
       1.698788883685e-02       4.849173271602e+00 
       1.711358392725e-02       4.846269385110e+00 
       1.723932798205e-02       4.843087268706e+00 
       1.736512175823e-02       4.839629314193e+00 
       1.749096603570e-02       4.835898660168e+00 
       1.761686161762e-02       4.831897825210e+00 
       1.774280933070e-02       4.827640481925e+00 
       1.786881002554e-02       4.823117338987e+00 
       1.799486457700e-02       4.818343520199e+00 
       1.812097388457e-02       4.813317365598e+00 
       1.824713887274e-02       4.808040926905e+00 
       1.837336049141e-02       4.802523709127e+00 
       1.849963971633e-02       4.796768551700e+00 
       1.862597754953e-02       4.790773604840e+00 
       1.875237501977e-02       4.784549781047e+00 
       1.887883318301e-02       4.778099578107e+00 
       1.900535312294e-02       4.771424759024e+00 
       1.913193595143e-02       4.764528150613e+00 
       1.925858280911e-02       4.757418234043e+00 
       1.938529486592e-02       4.750091275399e+00 
       1.951207332163e-02       4.742558693730e+00 
       1.963891940648e-02       4.734817793654e+00 
       1.976583438176e-02       4.726879205350e+00 
       1.989281954046e-02       4.718740321865e+00 
       2.001987620788e-02       4.710406415596e+00 
       2.014700574237e-02       4.701885032618e+00 
       2.027420953594e-02       4.693171347369e+00 
       2.040148901504e-02       4.684275578935e+00 
       2.052884564128e-02       4.675201084585e+00 
       2.065628091220e-02       4.665943515329e+00 
       2.078379636203e-02       4.656517292850e+00 
       2.091139356253e-02       4.646919015490e+00 
       2.103907412384e-02       4.637145953655e+00 
       2.116683969530e-02       4.627219802557e+00 
       2.129469196640e-02       4.617121851616e+00 
       2.142263266765e-02       4.606865767197e+00 
       2.155066357157e-02       4.596467478528e+00 
       2.167878649364e-02       4.585917427195e+00 
       2.180700329333e-02       4.575207626458e+00 
       2.193531587513e-02       4.564356384735e+00 
       2.206372618964e-02       4.553360936837e+00 
       2.219223623466e-02       4.542228642763e+00 
       2.232084805636e-02       4.530962449037e+00 
       2.244956375042e-02       4.519559215215e+00 
       2.257838546331e-02       4.508027563058e+00 
       2.270731539347e-02       4.496374963057e+00 
       2.283635579267e-02       4.484588131934e+00 
       2.296550896730e-02       4.472672578613e+00 
       2.309477727980e-02       4.460660954225e+00 
       2.322416315002e-02       4.448518693916e+00 
       2.335366905675e-02       4.436266602763e+00 
       2.348329753921e-02       4.423902086395e+00 
       2.361305119861e-02       4.411426911913e+00 
       2.374293269977e-02       4.398848364426e+00 
       2.387294477280e-02       4.386173670353e+00 
       2.400309021484e-02       4.373396823312e+00 
       2.413337189178e-02       4.360519325404e+00 
       2.426379274017e-02       4.347551359067e+00 
       2.439435576908e-02       4.334481405236e+00 
       2.452506406208e-02       4.321331679459e+00 
       2.465592077927e-02       4.308088786331e+00 
       2.478692915937e-02       4.294772865310e+00 
       2.491809252189e-02       4.281360527900e+00 
       2.504941426942e-02       4.267868136921e+00 
       2.518089788986e-02       4.254322146693e+00 
       2.531254695892e-02       4.240671609386e+00 
       2.544436514254e-02       4.226963892699e+00 
       2.557635619949e-02       4.213171409348e+00 
       2.570852398403e-02       4.199328498061e+00 
       2.584087244865e-02       4.185416846687e+00 
       2.597340564696e-02       4.171425795402e+00 
       2.610612773662e-02       4.157388817242e+00 
       2.623904298241e-02       4.143287395409e+00 
       2.637215575941e-02       4.129124882546e+00 
       2.650547055630e-02       4.114915337906e+00 
       2.663899197875e-02       4.100637875560e+00 
       2.677272475300e-02       4.086323086246e+00 
       2.690667372948e-02       4.071955177887e+00 
       2.704084388668e-02       4.057532035674e+00 
       2.717524033506e-02       4.043068443345e+00 
       2.730986832117e-02       4.028570391371e+00 
       2.744473323193e-02       4.014022817178e+00 
       2.757984059904e-02       3.999422390140e+00 
       2.771519610360e-02       3.984798424010e+00 
       2.785080558089e-02       3.970140690934e+00 
       2.798667502534e-02       3.955432908176e+00 
       2.812281059571e-02       3.940710393865e+00 
       2.825921862046e-02       3.925937264686e+00 
       2.839590560337e-02       3.911152429227e+00 
       2.853287822937e-02       3.896329386922e+00 
       2.867014337060e-02       3.881474595784e+00 
       2.880770809274e-02       3.866601506677e+00 
       2.894557966159e-02       3.851701162814e+00 
       2.908376554997e-02       3.836782537766e+00 
       2.922227344485e-02       3.821849007441e+00 
       2.936111125486e-02       3.806889030658e+00 
       2.950028711803e-02       3.791914407132e+00 
       2.963980940998e-02       3.776915632179e+00 
       2.977968675242e-02       3.761901795712e+00 
       2.991992802197e-02       3.746878306054e+00 
       3.006054235952e-02       3.731845516387e+00 
       3.020153917986e-02       3.716799637301e+00 
       3.034292818185e-02       3.701737427509e+00 
       3.048471935906e-02       3.686671871190e+00 
       3.062692301082e-02       3.671583537595e+00 
       3.076954975391e-02       3.656515832237e+00 
       3.091261053472e-02       3.641429439710e+00 
       3.105611664203e-02       3.626338201401e+00 
       3.120007972039e-02       3.611243782661e+00 
       3.134451178417e-02       3.596134367472e+00 
       3.148942523232e-02       3.581035308382e+00 
       3.163483286384e-02       3.565936992568e+00 
       3.178074789403e-02       3.550842092045e+00 
       3.192718397158e-02       3.535734500049e+00 
       3.207415519655e-02       3.520638286290e+00 
       3.222167613928e-02       3.505544906733e+00 
       3.236976186026e-02       3.490447483696e+00 
       3.251842793110e-02       3.475379930835e+00 
       3.266769045662e-02       3.460272360889e+00 
       3.281756609808e-02       3.445219339177e+00 
       3.296807209781e-02       3.430133221008e+00 
       3.311922630503e-02       3.415065438793e+00 
       3.327104720329e-02       3.400009468204e+00 
       3.342355393934e-02       3.384973654974e+00 
       3.357676635374e-02       3.369919583079e+00 
       3.373070501315e-02       3.354900307326e+00 
       3.388539124463e-02       3.339880532793e+00 
       3.404084717188e-02       3.324868970825e+00 
       3.419709575366e-02       3.309865482310e+00 
       3.435416082463e-02       3.294884335027e+00 
       3.451206713858e-02       3.279891639981e+00 
       3.467084041444e-02       3.264939159602e+00 
       3.483050738512e-02       3.249971231607e+00 
       3.499109584951e-02       3.235019024075e+00 
       3.515263472782e-02       3.220096537640e+00 
       3.531515412053e-02       3.205176795396e+00 
       3.547868537122e-02       3.190267961398e+00 
       3.564326113364e-02       3.175372030428e+00 
       3.580891544335e-02       3.160485543687e+00 
       3.597568379423e-02       3.145607778976e+00 
       3.614360322038e-02       3.130756928853e+00 
       3.631271238380e-02       3.115900337182e+00 
       3.648305166828e-02       3.101056239539e+00 
       3.665466328025e-02       3.086238103960e+00 
       3.682759135694e-02       3.071430451102e+00 
       3.700188208264e-02       3.056624391306e+00 
       3.717758381384e-02       3.041832175422e+00 
       3.735474721393e-02       3.027049865732e+00 
       3.753342539844e-02       3.012264880338e+00 
       3.771367409180e-02       2.997500217987e+00 
       3.789555179669e-02       2.982744070880e+00 
       3.807911997726e-02       2.967997363473e+00 
       3.826444325751e-02       2.953262658205e+00 
       3.845158963647e-02       2.938529151752e+00 
       3.864063072175e-02       2.923802093971e+00 
       3.883164198345e-02       2.909078826720e+00 
       3.902470303062e-02       2.894355770318e+00 
       3.921989791253e-02       2.879638005528e+00 
       3.941731544758e-02       2.864919725043e+00 
       3.961704958289e-02       2.850201954758e+00 
       3.981919978798e-02       2.835486887513e+00 
       4.002387148648e-02       2.820773099328e+00 
       4.023117653032e-02       2.806048410138e+00 
       4.044123372141e-02       2.791318106382e+00 
       4.065416938658e-02       2.776583585852e+00 
       4.087011801240e-02       2.761841919221e+00 
       4.108922294733e-02       2.747089042652e+00 
       4.131163717982e-02       2.732316027692e+00 
       4.153752420241e-02       2.717534782544e+00 
       4.176705897322e-02       2.702741056175e+00 
       4.200042898802e-02       2.687920690631e+00 
       4.223783547839e-02       2.673083223971e+00 
       4.247949475379e-02       2.658214736379e+00 
       4.272563970839e-02       2.643324169056e+00 
       4.297652151713e-02       2.628400991650e+00 
       4.323241154967e-02       2.613433007841e+00 
       4.349360353592e-02       2.598439850398e+00 
       4.376041602319e-02       2.583395364490e+00 
       4.403319517213e-02       2.568307349859e+00 
       4.431231794788e-02       2.553168594532e+00 
       4.459819577357e-02       2.537970646367e+00 
       4.489127872701e-02       2.522709654664e+00 
       4.519206037738e-02       2.507374534335e+00 
       4.550108337953e-02       2.491973885053e+00 
       4.581894596815e-02       2.476494563389e+00 
       4.614630952536e-02       2.460914210318e+00 
       4.648390743429e-02       2.445223247244e+00 
       4.683255547970e-02       2.429441700352e+00 
       4.719316411816e-02       2.413537081288e+00 
       4.756675301773e-02       2.397492724457e+00 
       4.795446836503e-02       2.381322341337e+00 
       4.835760356241e-02       2.365002633482e+00 
       4.877762409663e-02       2.348489288115e+00 
       4.921619756285e-02       2.331774233012e+00 
       4.967523008562e-02       2.314824542786e+00 
       5.015691070604e-02       2.297629236300e+00 
       5.066376571717e-02       2.280155177880e+00 
       5.119872544391e-02       2.262352282589e+00 
       5.176520658853e-02       2.244184986541e+00 
       5.236721399178e-02       2.225595236224e+00 
       5.300946644312e-02       2.206514433129e+00 
       5.369755187007e-02       2.186846398724e+00 
       5.443811751592e-02       2.166491225685e+00 
       5.523909986870e-02       2.145300491448e+00 
       5.610999570581e-02       2.123088826625e+00 
       5.706216694303e-02       2.099601146965e+00 
       5.810915312358e-02       2.074522034174e+00 
