# dimensionless total lensed [l(l+1)/2pi] C_l's
# for l=2 to 2500, i.e. number of multipoles equal to 2499
#
# -> if you prefer output in CAMB/HealPix/LensPix units/order, set 'format' to 'camb' in input file
# -> if you don't want to see such a header, set 'headers' to 'no' in input file
# -> for CMB lensing (phi), these are C_l^phi-phi for the lensing potential.
#    Remember the conversion factors:
#    C_l^dd (deflection) = l(l+1) C_l^phi-phi
#    C_l^gg (shear/convergence) = 1/4 (l(l+1))^2 C_l^phi-phi
#
# 1:l     2:TT                     3:EE                     4:TE                     5:BB                     6:phiphi                 7:TPhi                   8:Ephi               
    2       1.513644830586e-10       4.794169160840e-15       3.799573614354e-13       2.253203595843e-19       8.308942841488e-09       5.059120065336e-10      -2.012660723193e-12 
    3       1.417619052619e-10       6.054631144964e-15       4.281353398732e-13       4.507406383375e-19       5.129810917288e-09       3.573068558758e-10      -1.512219563562e-12 
    4       1.331029801824e-10       5.148979578221e-15       3.998172506338e-13       7.514543421715e-19       3.573417237903e-09       2.695801765721e-10      -9.767929519600e-13 
    5       1.266662981813e-10       3.373336837651e-15       3.391756819026e-13       1.127588921186e-18       2.668747396112e-09       2.123135629323e-10      -5.310289241985e-13 
    6       1.222164257404e-10       1.856563038297e-15       2.715874273903e-13       1.579298863256e-18       2.084690160611e-09       1.723353214626e-10      -2.072587779940e-13 
    7       1.192664841017e-10       9.992011645484e-16       2.117224023098e-13       2.106762700349e-18       1.680640907152e-09       1.430922926673e-10      -5.088532249897e-15 
    8       1.174576870091e-10       6.511212205416e-16       1.659067279104e-13       2.710179628360e-18       1.387203986012e-09       1.209775387436e-10       9.390974105812e-14 
    9       1.164914737626e-10       5.242253404217e-16       1.354173077444e-13       3.389765843341e-18       1.166711995657e-09       1.038403435762e-10       1.170790345009e-13 
   10       1.161203908982e-10       4.430170130823e-16       1.186526331143e-13       4.145750704026e-18       9.966376682333e-10       9.028061517069e-11       9.395906066745e-14 
   11       1.162480919966e-10       3.698585421143e-16       1.125809676289e-13       4.978372833758e-18       8.432483724194e-10       7.968609759337e-11       5.145243078420e-14 
   12       1.167287112614e-10       3.230812210822e-16       1.137763324658e-13       5.887876274021e-18       7.367193558474e-10       7.043648798187e-11       8.506019648353e-15 
   13       1.174925175830e-10       3.112421258575e-16       1.192649356224e-13       6.874506797035e-18       6.492687255813e-10       6.289389999491e-11      -2.257337526324e-14 
   14       1.184665986104e-10       3.231157891351e-16       1.268631802333e-13       7.938508476329e-18       5.765094362716e-10       5.630756236806e-11      -3.807927321256e-14 
   15       1.196485743695e-10       3.466852269135e-16       1.351526597362e-13       9.080120602312e-18       5.152653948786e-10       5.077098862341e-11      -3.911729645168e-14 
   16       1.209788345079e-10       3.813549821356e-16       1.435293821817e-13       1.029957501507e-17       4.631945459658e-10       4.602125901567e-11      -3.059003907632e-14 
   17       1.224470957524e-10       4.337541801221e-16       1.518950009286e-13       1.159709390953e-17       4.185276028404e-10       4.189325139183e-11      -1.835710432541e-14 
   18       1.240053296827e-10       5.088196731823e-16       1.604900449049e-13       1.297288794093e-17       3.797612389314e-10       3.827088989114e-11      -7.624536314201e-15 
   19       1.256650502227e-10       6.063051400370e-16       1.695552390111e-13       1.442715610602e-17       3.462770709155e-10       3.511448681276e-11      -8.584016143656e-16 
   20       1.274050348782e-10       7.236642516849e-16       1.792706788796e-13       1.596008279618e-17       3.167874724106e-10       3.233022660868e-11       6.145710478835e-16 
   21       1.292315280434e-10       8.602929140144e-16       1.895898819365e-13       1.757184086485e-17       2.908292486752e-10       2.986670334497e-11      -2.207641585116e-15 
   22       1.311261177838e-10       1.015842644931e-15       2.002910424185e-13       1.926258837773e-17       2.677805365992e-10       2.764739441384e-11      -7.115557807386e-15 
   23       1.330868211564e-10       1.190080530595e-15       2.109347262340e-13       2.103247320823e-17       2.473244792812e-10       2.564963473461e-11      -1.224090060252e-14 
   24       1.350965617380e-10       1.382729297682e-15       2.209778930618e-13       2.288162973398e-17       2.289885523762e-10       2.384576694154e-11      -1.575954290271e-14 
   25       1.371662123124e-10       1.594333655284e-15       2.301496886420e-13       2.481018520827e-17       2.125570316307e-10       2.222829851212e-11      -1.704050574926e-14 
   26       1.392963736100e-10       1.825903624265e-15       2.382745361672e-13       2.681825577495e-17       1.977323674317e-10       2.077759173416e-11      -1.603166902205e-14 
   27       1.414728648357e-10       2.079496311321e-15       2.452848856243e-13       2.890595251273e-17       1.843366084038e-10       1.946529603232e-11      -1.354545109884e-14 
   28       1.436688591604e-10       2.357483635808e-15       2.511753401410e-13       3.107337872286e-17       1.721387234977e-10       1.825339689001e-11      -1.073999707857e-14 
   29       1.458945241596e-10       2.661311592831e-15       2.560113495320e-13       3.332063940952e-17       1.610763495439e-10       1.714072930585e-11      -8.251084858912e-15 
   30       1.481608692033e-10       2.992123078437e-15       2.599161823902e-13       3.564783360310e-17       1.510306491551e-10       1.612909133494e-11      -6.645371217871e-15 
   31       1.504678877588e-10       3.350990760815e-15       2.630149242920e-13       3.805505432037e-17       1.417966599552e-10       1.521070812873e-11      -6.413616638262e-15 
   32       1.528179667558e-10       3.738833429702e-15       2.652519766405e-13       4.054239998015e-17       1.333266188585e-10       1.437516542100e-11      -7.275247758806e-15 
   33       1.552046532673e-10       4.156453788490e-15       2.665039803832e-13       4.310996725808e-17       1.255605475885e-10       1.360310764091e-11      -8.596720949014e-15 
   34       1.576146702869e-10       4.604607781085e-15       2.666297732259e-13       4.575784961563e-17       1.183896830094e-10       1.287154926425e-11      -9.698419590798e-15 
   35       1.600524649490e-10       5.084202098282e-15       2.654870710023e-13       4.848614216449e-17       1.117772627984e-10       1.218239903086e-11      -1.034721198093e-14 
   36       1.625224836162e-10       5.596157611503e-15       2.629189109085e-13       5.129493880637e-17       1.056701861396e-10       1.154308739550e-11      -1.042959825692e-14 
   37       1.650241805830e-10       6.141340468961e-15       2.587816972871e-13       5.418433003887e-17       9.998891511408e-11       1.095789532240e-11      -9.879845390502e-15 
   38       1.675600163352e-10       6.720515652766e-15       2.530615787072e-13       5.715439909557e-17       9.471872402276e-11       1.042493682936e-11      -8.879764425207e-15 
   39       1.701288719178e-10       7.334371131761e-15       2.457972148925e-13       6.020522478280e-17       8.984284766561e-11       9.937623330106e-12      -7.729779889699e-15 
   40       1.727230697157e-10       7.983524556933e-15       2.370504210008e-13       6.333688266039e-17       8.531472601792e-11       9.485019684308e-12      -6.801284517096e-15 
   41       1.753327073539e-10       8.668566170672e-15       2.268832078490e-13       6.654944128410e-17       8.107421167918e-11       9.055142618370e-12      -6.434263648942e-15 
   42       1.779619301764e-10       9.390215100840e-15       2.152765423638e-13       6.984294918901e-17       7.710878411833e-11       8.646995115515e-12      -6.579199024868e-15 
   43       1.806168539521e-10       1.014920640726e-14       2.021875012555e-13       7.321744385985e-17       7.340788917951e-11       8.261856062405e-12      -7.046215838573e-15 
   44       1.833007273008e-10       1.094624688631e-14       1.875710830219e-13       7.667295508659e-17       6.994457133891e-11       7.899867509821e-12      -7.599157234696e-15 
   45       1.860146299618e-10       1.178197692604e-14       1.713807377164e-13       8.020950042406e-17       6.668509183405e-11       7.560311555416e-12      -8.011612959940e-15 
   46       1.887605525663e-10       1.265684538615e-14       1.535707960186e-13       8.382707031898e-17       6.362428807538e-11       7.242779071159e-12      -8.261630178475e-15 
   47       1.915387062924e-10       1.357119520881e-14       1.340942965071e-13       8.752563827193e-17       6.075856482374e-11       6.946177591337e-12      -8.390412989404e-15 
   48       1.943463446493e-10       1.452529380496e-14       1.129020188892e-13       9.130516443866e-17       5.807522970947e-11       6.668305474387e-12      -8.449077723690e-15 
   49       1.971775093395e-10       1.551932969221e-14       8.994225420243e-14       9.516559522199e-17       5.555181696045e-11       6.405772120941e-12      -8.499220106289e-15 
   50       2.000257901589e-10       1.655344037089e-14       6.516692117640e-14       9.910686286355e-17       5.316284609192e-11       6.154983243347e-12      -8.599475090197e-15 
   51       2.028940774674e-10       1.762781267215e-14       3.855240568183e-14       1.031288850348e-16       5.090382970804e-11       5.915597054611e-12      -8.759579689330e-15 
   52       2.057870176233e-10       1.874260383670e-14       1.008398069487e-14       1.072315644295e-16       4.877261336909e-11       5.687868314881e-12      -8.974821395429e-15 
   53       2.087081206751e-10       1.989791081036e-14      -2.024997825595e-14       1.114147883562e-16       4.676219154093e-11       5.471636316201e-12      -9.238865872074e-15 
   54       2.116596480602e-10       2.109376835199e-14      -5.245792424464e-14       1.156784283299e-16       4.486038120364e-11       5.266295220629e-12      -9.543664948439e-15 
   55       2.146429163722e-10       2.233016168155e-14      -8.654567383610e-14       1.200223493599e-16       4.305353334982e-11       5.071054550954e-12      -9.879015301512e-15 
   56       2.176595543030e-10       2.360707243809e-14      -1.225183250730e-13       1.244464414510e-16       4.133949492149e-11       4.885864394643e-12      -1.023131689733e-14 
   57       2.207103612480e-10       2.492444082469e-14      -1.603786953702e-13       1.289505952129e-16       3.971729519630e-11       4.710668085296e-12      -1.058434496371e-14 
   58       2.237948245971e-10       2.628215077205e-14      -2.001267151906e-13       1.335346928205e-16       3.818322462538e-11       4.545114229588e-12      -1.091946896206e-14 
   59       2.269110236434e-10       2.768002861293e-14      -2.417593827212e-13       1.381986079835e-16       3.673066576219e-11       4.388538350033e-12      -1.121554697152e-14 
   60       2.300555334935e-10       2.911784175666e-14      -2.852707185510e-13       1.429422059160e-16       3.534992419148e-11       4.239944527745e-12      -1.144882007324e-14 
   61       2.332248832175e-10       3.059524670763e-14      -3.306525749827e-13       1.477653605682e-16       3.403091687201e-11       4.098277784146e-12      -1.159849178236e-14 
   62       2.364205301508e-10       3.211162248498e-14      -3.778973787835e-13       1.526680109083e-16       3.277232479246e-11       3.963354199944e-12      -1.166516873577e-14 
   63       2.396448366952e-10       3.366619728986e-14      -4.269959264492e-13       1.576501172771e-16       3.157420405730e-11       3.835107946236e-12      -1.165639063504e-14 
   64       2.428995687538e-10       3.525809298726e-14      -4.779365660492e-13       1.627116457488e-16       3.043523290376e-11       3.713310016855e-12      -1.158138373600e-14 
   65       2.461858489554e-10       3.688632217323e-14      -5.307051790195e-13       1.678525686476e-16       2.935263329432e-11       3.597559096058e-12      -1.145113561523e-14 
   66       2.495041098792e-10       3.854978524207e-14      -5.852851619577e-13       1.730728650658e-16       2.832209250918e-11       3.487272426223e-12      -1.127846993654e-14 
   67       2.528540472789e-10       4.024726745356e-14      -6.416574084159e-13       1.783725213808e-16       2.733768473879e-11       3.381676675534e-12      -1.107812121745e-14 
   68       2.562351625118e-10       4.197754765285e-14      -6.998002876156e-13       1.837515394756e-16       2.639345128022e-11       3.280010934961e-12      -1.086418984798e-14 
   69       2.596486220127e-10       4.373975656704e-14      -7.596896162787e-13       1.892099621781e-16       2.548868820106e-11       3.182203886578e-12      -1.064174120283e-14 
   70       2.630956922998e-10       4.553308617391e-14      -8.212986483561e-13       1.947478539294e-16       2.462359416358e-11       3.088318072137e-12      -1.041363078074e-14 
   71       2.665771529693e-10       4.735668439697e-14      -8.845980596452e-13       2.003652942391e-16       2.379767127684e-11       2.998346263703e-12      -1.018298096472e-14 
   72       2.700932649894e-10       4.920965502830e-14      -9.495559295051e-13       2.060623783988e-16       2.300968910878e-11       2.912207756639e-12      -9.953188787329e-15 
   73       2.736437389936e-10       5.109105765124e-14      -1.016137722572e-12       2.118392181973e-16       2.225764869817e-11       2.829744662608e-12      -9.727933695898e-15 
   74       2.772277035743e-10       5.299990756324e-14      -1.084306270473e-12       2.176959426345e-16       2.153874656675e-11       2.750718202555e-12      -9.511185317830e-15 
   75       2.808436735765e-10       5.493517569858e-14      -1.154021753544e-12       2.236326986361e-16       2.084933873117e-11       2.674804999704e-12      -9.307211225846e-15 
   76       2.844902055468e-10       5.689574313646e-14      -1.225243228322e-12       2.296496421347e-16       2.018584378009e-11       2.601681281668e-12      -9.119813803288e-15 
   77       2.881680721577e-10       5.888025521859e-14      -1.297933572033e-12       2.357469078574e-16       1.954772177907e-11       2.531301407976e-12      -8.949863014769e-15 
   78       2.918784285378e-10       6.088724056538e-14      -1.372055410727e-12       2.419246353013e-16       1.893497572426e-11       2.463663634473e-12      -8.797325741982e-15 
   79       2.956221429630e-10       6.291515313839e-14      -1.447569666679e-12       2.481829783860e-16       1.834724420741e-11       2.398724836503e-12      -8.661988857703e-15 
   80       2.993997792397e-10       6.496237123189e-14      -1.524435571804e-12       2.545221059710e-16       1.778378468418e-11       2.336398604551e-12      -8.543451183134e-15 
   81       3.032115790900e-10       6.702719646436e-14      -1.602610681069e-12       2.609422023722e-16       1.724345674245e-11       2.276553339880e-12      -8.441115445235e-15 
   82       3.070574445354e-10       6.910785276999e-14      -1.682050885905e-12       2.674434678787e-16       1.672470537070e-11       2.219010350174e-12      -8.354180234055e-15 
   83       3.109369202814e-10       7.120248539019e-14      -1.762710427622e-12       2.740261192701e-16       1.622554422626e-11       2.163541945171e-12      -8.281631960075e-15 
   84       3.148494898060e-10       7.330922085571e-14      -1.844541301605e-12       2.806903872217e-16       1.574403741816e-11       2.109926444201e-12      -8.222205457078e-15 
   85       3.187955586104e-10       7.542636056732e-14      -1.927491327041e-12       2.874365068962e-16       1.527987327393e-11       2.058127847858e-12      -8.174275903826e-15 
   86       3.227756024311e-10       7.755221760692e-14      -2.011505780302e-12       2.942647267327e-16       1.483302200632e-11       2.008142599021e-12      -8.135934156157e-15 
   87       3.267898558662e-10       7.968505861650e-14      -2.096527978829e-12       3.011753118772e-16       1.440325216545e-11       1.959944385368e-12      -8.105008065089e-15 
   88       3.308383000325e-10       8.182310381473e-14      -2.182499284307e-12       3.081685446470e-16       1.399012228548e-11       1.913483191521e-12      -8.079053907194e-15 
   89       3.349206502219e-10       8.396452701349e-14      -2.269359105840e-12       3.152447249953e-16       1.359297253137e-11       1.868684351184e-12      -8.055347814961e-15 
   90       3.390363435579e-10       8.610745563448e-14      -2.357044903125e-12       3.224041709759e-16       1.321091634559e-11       1.825447599288e-12      -8.030877207169e-15 
   91       3.431845266526e-10       8.824997072572e-14      -2.445492189623e-12       3.296472192077e-16       1.284283209484e-11       1.783646124132e-12      -8.002332219256e-15 
   92       3.473640432628e-10       9.039010697815e-14      -2.534634535736e-12       3.369742253391e-16       1.248735471675e-11       1.743125619521e-12      -7.966097133690e-15 
   93       3.515737807380e-10       9.252588595428e-14      -2.624404785397e-12       3.443855749067e-16       1.214319897098e-11       1.703742666347e-12      -7.919105185325e-15 
   94       3.558137957776e-10       9.465542145491e-14      -2.714738908256e-12       3.518817167684e-16       1.181020294916e-11       1.665488539364e-12      -7.861568654389e-15 
   95       3.600843359534e-10       9.677683010393e-14      -2.805572735427e-12       3.594631355808e-16       1.148842679481e-11       1.628382355108e-12      -7.794645445860e-15 
   96       3.643854886864e-10       9.888820001436e-14      -2.896840817259e-12       3.671303424527e-16       1.117783133250e-11       1.592432999068e-12      -7.719615538091e-15 
   97       3.687171738282e-10       1.009875912608e-13      -2.988476443163e-12       3.748838755526e-16       1.087827426652e-11       1.557638717697e-12      -7.637884264586e-15 
   98       3.730791362427e-10       1.030730363519e-13      -3.080411661445e-12       3.827243007155e-16       1.058950637944e-11       1.523986710420e-12      -7.550985595775e-15 
   99       3.774709383877e-10       1.051425407028e-13      -3.172577299134e-12       3.906522120505e-16       1.031116773068e-11       1.491452721652e-12      -7.460585420791e-15 
  100       3.818919528969e-10       1.071940831076e-13      -3.264902981813e-12       3.986682325479e-16       1.004278385518e-11       1.460000632799e-12      -7.368484829246e-15 
  101       3.863413551612e-10       1.092256162118e-13      -3.357317153450e-12       4.067730146866e-16       9.783761961912e-12       1.429582054276e-12      -7.276623393005e-15 
  102       3.908181159107e-10       1.112350669848e-13      -3.449747096227e-12       4.149672410411e-16       9.533387132563e-12       1.400135917512e-12      -7.187082447968e-15 
  103       3.953209937960e-10       1.132203371923e-13      -3.542118950370e-12       4.232516248890e-16       9.290818520072e-12       1.371588066965e-12      -7.102088375840e-15 
  104       3.998487910026e-10       1.151793549562e-13      -3.634358284222e-12       4.316268874322e-16       9.055279590644e-12       1.343868187207e-12      -7.023528285967e-15 
  105       4.044011753956e-10       1.171102363485e-13      -3.726391849447e-12       4.400936846473e-16       8.826666305334e-12       1.316964067096e-12      -6.951415481905e-15 
  106       4.089779561219e-10       1.190111466091e-13      -3.818146101003e-12       4.486526716397e-16       8.605014390492e-12       1.290873939424e-12      -6.885221854914e-15 
  107       4.135788260219e-10       1.208802520283e-13      -3.909546693634e-12       4.573045254937e-16       8.390310981901e-12       1.265589585544e-12      -6.824344921497e-15 
