# dimensionless total lensed [l(l+1)/2pi] C_l's
# for l=2 to 2500, i.e. number of multipoles equal to 2499
#
# -> if you prefer output in CAMB/HealPix/LensPix units/order, set 'format' to 'camb' in input file
# -> if you don't want to see such a header, set 'headers' to 'no' in input file
# -> for CMB lensing (phi), these are C_l^phi-phi for the lensing potential.
#    Remember the conversion factors:
#    C_l^dd (deflection) = l(l+1) C_l^phi-phi
#    C_l^gg (shear/convergence) = 1/4 (l(l+1))^2 C_l^phi-phi
#
# 1:l     2:TT                     3:EE                     4:TE                     5:BB                     6:phiphi                 7:TPhi                   8:Ephi               
    2       1.513639892785e-10       4.794153522019e-15       3.799561221707e-13       2.253191366301e-19       8.308915983639e-09       5.059103553918e-10      -2.012654156608e-12 
    3       1.417614426048e-10       6.054611395411e-15       4.281339433767e-13       4.507381933033e-19       5.129794366931e-09       3.573056878325e-10      -1.512214630757e-12 
    4       1.331025463173e-10       5.148962781938e-15       3.998159467523e-13       7.514502689762e-19       3.573405730792e-09       2.695793033169e-10      -9.767897662799e-13 
    5       1.266658861345e-10       3.373325831706e-15       3.391745755017e-13       1.127582814692e-18       2.668738811981e-09       2.123128783416e-10      -5.310271926807e-13 
    6       1.222160268927e-10       1.856556978735e-15       2.715865412586e-13       1.579290319329e-18       2.084683454661e-09       1.723347571928e-10      -2.072581027559e-13 
    7       1.192660942965e-10       9.991979003559e-16       2.117217115619e-13       2.106751315801e-18       1.680635502401e-09       1.430918209854e-10      -5.088516164673e-15 
    8       1.174573044580e-10       6.511190904149e-16       1.659061867293e-13       2.710165000794e-18       1.387199523214e-09       1.209771501053e-10       9.390943513662e-14 
    9       1.164910956364e-10       5.242236228327e-16       1.354168661461e-13       3.389747570868e-18       1.166708238064e-09       1.038400152188e-10       1.170786533124e-13 
   10       1.161200127031e-10       4.430155589894e-16       1.186522459469e-13       4.145728384882e-18       9.966344577632e-10       9.028032006028e-11       9.395875393819e-14 
   11       1.162477109049e-10       3.698573249188e-16       1.125806004027e-13       4.978346065816e-18       8.432456491589e-10       7.968583029714e-11       5.145226195576e-14 
   12       1.167283317602e-10       3.230801548196e-16       1.137759610439e-13       5.887844654228e-18       7.367169778839e-10       7.043626098928e-11       8.505991911112e-15 
   13       1.174921360784e-10       3.112410960671e-16       1.192645474559e-13       6.874469920790e-18       6.492666309890e-10       6.289370605187e-11      -2.257329988705e-14 
   14       1.184662152700e-10       3.231147179672e-16       1.268627666566e-13       7.938465936830e-18       5.765075773755e-10       5.630738139466e-11      -3.807914715574e-14 
   15       1.196481808128e-10       3.466840764956e-16       1.351522194248e-13       9.080071989904e-18       5.152637343138e-10       5.077081520672e-11      -3.911716887123e-14 
   16       1.209784419003e-10       3.813537161706e-16       1.435289136905e-13       1.029951991663e-17       4.631930539737e-10       4.602110666769e-11      -3.058994111049e-14 
   17       1.224466973697e-10       4.337527390942e-16       1.518945058781e-13       1.159703190789e-17       4.185262554067e-10       4.189312423892e-11      -1.835704650194e-14 
   18       1.240049238539e-10       5.088179864124e-16       1.604895209174e-13       1.297281861441e-17       3.797600169176e-10       3.827077110671e-11      -7.624512958744e-15 
   19       1.256646389639e-10       6.063031342934e-16       1.695546836912e-13       1.442707902817e-17       3.462759572025e-10       3.511436783800e-11      -8.583997681358e-16 
   20       1.274046198877e-10       7.236618566466e-16       1.792700920117e-13       1.595999753545e-17       3.167864540470e-10       3.233011709758e-11       6.145681829632e-16 
   21       1.292311098760e-10       8.602900695230e-16       1.895892627318e-13       1.757174698467e-17       2.908283142138e-10       2.986660928161e-11      -2.207634967091e-15 
   22       1.311256955752e-10       1.015839301561e-15       2.002903890232e-13       1.926248543658e-17       2.677796766113e-10       2.764731075967e-11      -7.115533780669e-15 
   23       1.330863934194e-10       1.190076624136e-15       2.109340386423e-13       2.103236076001e-17       2.473236853702e-10       2.564955445293e-11      -1.224085769221e-14 
   24       1.350961270264e-10       1.382724745559e-15       2.209771740380e-13       2.288150732846e-17       2.289878176783e-10       2.384568543908e-11      -1.575948662164e-14 
   25       1.371657708438e-10       1.594328392325e-15       2.301489413768e-13       2.481005239180e-17       2.125563499726e-10       2.222821918716e-11      -1.704044525794e-14 
   26       1.392959274182e-10       1.825897609496e-15       2.382737634043e-13       2.681811209119e-17       1.977317335962e-10       2.077752562339e-11      -1.603161489017e-14 
   27       1.414724142871e-10       2.079489484622e-15       2.452840894851e-13       2.890579750363e-17       1.843360177771e-10       1.946524519972e-11      -1.354540899189e-14 
   28       1.436684019990e-10       2.357475906074e-15       2.511745222872e-13       3.107321192964e-17       1.721381722462e-10       1.825335041389e-11      -1.073996577629e-14 
   29       1.458940576784e-10       2.661302864779e-15       2.560105127512e-13       3.332046037369e-17       1.610758340207e-10       1.714067765154e-11      -8.251061254503e-15 
   30       1.481603910569e-10       2.992113262606e-15       2.599153313628e-13       3.564764186759e-17       1.510301660610e-10       1.612903213875e-11      -6.645351837318e-15 
   31       1.504673964322e-10       3.350979773044e-15       2.630140653089e-13       3.805484943056e-17       1.417962066180e-10       1.521064652365e-11      -6.413597868046e-15 
   32       1.528174627757e-10       3.738821177843e-15       2.652511147841e-13       4.054218148451e-17       1.333261927710e-10       1.437510750344e-11      -7.275226601808e-15 
   33       1.552041400259e-10       4.156440166972e-15       2.665031182397e-13       4.310973470926e-17       1.255601464665e-10       1.360305823751e-11      -8.596695492695e-15 
   34       1.576141535837e-10       4.604592673050e-15       2.666289111434e-13       4.575760257130e-17       1.183893049487e-10       1.287151138987e-11      -9.698389266006e-15 
   35       1.600519485780e-10       5.084185393085e-15       2.654862106149e-13       4.848588018735e-17       1.117769060130e-10       1.218237321145e-11      -1.034717746721e-14 
   36       1.625219674658e-10       5.596139212506e-15       2.629180565704e-13       5.129466146475e-17       1.056698490045e-10       1.154307100472e-11      -1.042956165299e-14 
   37       1.650236606928e-10       6.141320292331e-15       2.587808559899e-13       5.418403690718e-17       9.998859624998e-11       1.095788278724e-11      -9.879810002946e-15 
   38       1.675594883113e-10       6.720493608354e-15       2.530607575885e-13       5.715408975277e-17       9.471842209707e-11       1.042492284923e-11      -8.879732864530e-15 
   39       1.701283320851e-10       7.334347115964e-15       2.457964203642e-13       6.020489881220e-17       8.984256140206e-11       9.937604085277e-12      -7.729753284318e-15 
   40       1.727225153969e-10       7.983498450123e-15       2.370496585022e-13       6.333653964996e-17       8.531445429295e-11       9.484993276208e-12      -6.801262150269e-15 
   41       1.753321370384e-10       8.668537838409e-15       2.268824818949e-13       6.654908082613e-17       8.107395356561e-11       9.055109143761e-12      -6.434243080998e-15 
   42       1.779613432690e-10       9.390184408279e-15       2.152758576353e-13       6.984257087741e-17       7.710853872997e-11       8.646955426711e-12      -6.579177917773e-15 
   43       1.806162508387e-10       1.014917322437e-14       2.021868629610e-13       7.321704728903e-17       7.340765566412e-11       8.261811464353e-12      -7.046192592828e-15 
   44       1.833001095453e-10       1.094621108966e-14       1.875704969799e-13       7.667253985087e-17       6.994434893087e-11       7.899819819224e-12      -7.599131176577e-15 
   45       1.860140001751e-10       1.178193839848e-14       1.713802102002e-13       8.020906611684e-17       6.668487987614e-11       7.560262996356e-12      -8.011584323664e-15 
   46       1.887599131523e-10       1.265680400947e-14       1.535703327892e-13       8.382661653073e-17       6.362408592724e-11       7.242731615412e-12      -8.261599372809e-15 
   47       1.915380590010e-10       1.357115086153e-14       1.340939024246e-13       8.752516458888e-17       6.075837185688e-11       6.946132692658e-12      -8.390380385525e-15 
   48       1.943456904305e-10       1.452524636203e-14       1.129016977373e-13       9.130467044173e-17       5.807504533655e-11       6.668263947981e-12      -8.449043640162e-15 
   49       1.971768481890e-10       1.551927902474e-14       8.994200850469e-14       9.516508048567e-17       5.555164066664e-11       6.405734016108e-12      -8.499184793103e-15 
   50       2.000251211895e-10       1.655338634605e-14       6.516675259260e-14       9.910632695511e-17       5.316267744456e-11       6.154947898249e-12      -8.599438719141e-15 
   51       2.028933997451e-10       1.762775515400e-14       3.855231735161e-14       1.031283275151e-16       5.090366828911e-11       5.915563771523e-12      -8.759542367574e-15 
   52       2.057863304323e-10       1.874254268632e-14       1.008397814757e-14       1.072309848528e-16       4.877245876759e-11       5.687836571573e-12      -8.974783160561e-15 
   53       2.087074235698e-10       1.989784588572e-14      -2.024988671596e-14       1.114141862688e-16       4.676204336850e-11       5.471605805117e-12      -9.238826679828e-15 
   54       2.116589409217e-10       2.109369950784e-14      -5.245772713356e-14       1.156778032695e-16       4.486023911110e-11       5.266265890121e-12      -9.543624659824e-15 
   55       2.146421993820e-10       2.233008877069e-14      -8.654535708421e-14       1.200217008561e-16       4.305339703189e-11       5.071026583936e-12      -9.878973705056e-15 
   56       2.176588276425e-10       2.360699531703e-14      -1.225178759453e-13       1.244457690296e-16       4.133936407993e-11       4.885837976566e-12      -1.023127384830e-14 
   57       2.207096250096e-10       2.492435935603e-14      -1.603781038535e-13       1.289498983977e-16       3.971716953610e-11       4.710643334078e-12      -1.058430043439e-14 
   58       2.237940787728e-10       2.628206482556e-14      -2.001259744556e-13       1.335339711333e-16       3.818310386352e-11       4.545091185165e-12      -1.091942305956e-14 
   59       2.269102681138e-10       2.767993806674e-14      -2.417584896065e-13       1.381978609441e-16       3.673054963698e-11       4.388516963447e-12      -1.121549995644e-14 
   60       2.300547680160e-10       2.911774649845e-14      -2.852696740667e-13       1.429414330428e-16       3.534981247240e-11       4.239924649785e-12      -1.144877237908e-14 
   61       2.332241075038e-10       3.059514663360e-14      -3.306513837221e-13       1.477645613788e-16       3.403080936096e-11       4.098259178786e-12      -1.159844399801e-14 
   62       2.364197442384e-10       3.211151749127e-14      -3.778960447235e-13       1.526671849245e-16       3.277222129563e-11       3.963336639743e-12      -1.166512146559e-14 
   63       2.396440410900e-10       3.366608726993e-14      -4.269944515847e-13       1.576492640270e-16       3.157410438077e-11       3.835091243446e-12      -1.165634445513e-14 
   64       2.428987644921e-10       3.525797783134e-14      -4.779349500539e-13       1.627107647676e-16       3.043513685793e-11       3.713294031240e-12      -1.158133918540e-14 
   65       2.461850376675e-10       3.688620176778e-14      -5.307034188931e-13       1.678516594789e-16       2.935254069852e-11       3.597543743059e-12      -1.145109318673e-14 
   66       2.495032938560e-10       3.854965946918e-14      -5.852832516571e-13       1.730719272626e-16       2.832200319659e-11       3.487257685464e-12      -1.127843006708e-14 
   67       2.528532295406e-10       4.024713619035e-14      -6.416553384731e-13       1.783715545068e-16       2.733759856163e-11       3.381662599681e-12      -1.107808427808e-14 
   68       2.562343465173e-10       4.197741077298e-14      -6.997980454950e-13       1.837505431051e-16       2.639336810982e-11       3.279997640787e-12      -1.086415612817e-14 
   69       2.596478101993e-10       4.373961394898e-14      -7.596871891618e-13       1.892089358910e-16       2.548860791103e-11       3.182191487708e-12      -1.064171087729e-14 
   70       2.630948855590e-10       4.553293770381e-14      -8.212960239669e-13       1.947467973107e-16       2.462351662696e-11       3.088306658865e-12      -1.041360388944e-14 
   71       2.665763504569e-10       4.735652996950e-14      -8.845952263688e-13       2.003642068785e-16       2.379759636831e-11       2.998335899781e-12      -1.018295739734e-14 
   72       2.700924639288e-10       4.920949454751e-14      -9.495528765106e-13       2.060612598917e-16       2.300961670697e-11       2.912198475958e-12      -9.953168267134e-15 
   73       2.736429344723e-10       5.109089103153e-14      -1.016134439940e-12       2.118380681446e-16       2.225757868816e-11       2.829736465747e-12      -9.727915763108e-15 
   74       2.772268883337e-10       5.299973473023e-14      -1.084302749330e-12       2.176947606433e-16       2.153867884259e-11       2.750711053229e-12      -9.511169312433e-15 
   75       2.808428377949e-10       5.493499659011e-14      -1.154017986196e-12       2.236314843200e-16       2.084927319860e-11       2.674798821083e-12      -9.307196269868e-15 
   76       2.844893375407e-10       5.689555769990e-14      -1.225239208353e-12       2.296483951119e-16       2.018578035633e-11       2.601675961201e-12      -9.119798846768e-15 
   77       2.881671620465e-10       5.888006339652e-14      -1.297929294253e-12       2.357456277414e-16       1.954766038307e-11       2.531296829777e-12      -8.949847087450e-15 
   78       2.918774694762e-10       6.088704229074e-14      -1.372050871249e-12       2.419233216979e-16       1.893491627502e-11       2.463659688981e-12      -8.797308035985e-15 
   79       2.956211315071e-10       6.291494833320e-14      -1.447564863044e-12       2.481816308922e-16       1.834718662508e-11       2.398721422027e-12      -8.661968750052e-15 
   80       2.993987157262e-10       6.496215980585e-14      -1.524430503111e-12       2.545207241737e-16       1.778372889133e-11       2.336395628875e-12      -8.543428259052e-15 
   81       3.032104680271e-10       6.702697831340e-14      -1.602605348104e-12       2.609407858470e-16       1.724340266530e-11       2.276550721927e-12      -8.441089522215e-15 
   82       3.070562950060e-10       6.910762777478e-14      -1.682045291280e-12       2.674420161891e-16       1.672465294044e-11       2.219008021731e-12      -8.354151386711e-15 
   83       3.109357463584e-10       7.120225341461e-14      -1.762704575914e-12       2.740246319656e-16       1.622549338047e-11       2.163539852672e-12      -8.281600545762e-15 
   84       3.148483096258e-10       7.330898175340e-14      -1.844535199138e-12       2.806888638387e-16       1.574398810058e-11       2.109924547737e-12      -8.222172083558e-15 
   85       3.187943891381e-10       7.542611421415e-14      -1.927484980529e-12       2.874349469626e-16       1.527982542932e-11       2.058126111214e-12      -8.174241210337e-15 
   86       3.227744578385e-10       7.755196391171e-14      -2.011499196448e-12       2.942631297696e-16       1.483297557953e-11       2.008140987295e-12      -8.135898751418e-15 
   87       3.267887471905e-10       7.968479752419e-14      -2.096521164265e-12       3.011736773978e-16       1.440320710207e-11       1.959942865314e-12      -8.104972521083e-15 
   88       3.308372348241e-10       8.182283530954e-14      -2.182492245534e-12       3.081668721564e-16       1.399007853250e-11       1.913481731893e-12      -8.079018752734e-15 
   89       3.349196321813e-10       8.396425112224e-14      -2.269351849162e-12       3.152430139901e-16       1.359293003788e-11       1.868682923098e-12      -8.055313529049e-15 
   90       3.390353721628e-10       8.610717242994e-14      -2.357037434583e-12       3.224024209433e-16       1.321087506350e-11       1.825446176594e-12      -8.030844212140e-15 
   91       3.431835967736e-10       8.824968033010e-14      -2.445484514927e-12       3.296454296254e-16       1.284279197961e-11       1.783644683795e-12      -8.002300873713e-15 
   92       3.473631447692e-10       9.038980956664e-14      -2.534626660192e-12       3.369723956746e-16       1.248731572819e-11       1.743124142023e-12      -7.966067725220e-15 
   93       3.515728992458e-10       9.252558174567e-14      -2.624396713499e-12       3.443837046191e-16       1.214316107298e-11       1.703741136019e-12      -7.919077925864e-15 
   94       3.558129170447e-10       9.465511066104e-14      -2.714730642212e-12       3.518798053190e-16       1.181016610612e-11       1.665486944527e-12      -7.861543684414e-15 
   95       3.600834471597e-10       9.677651291425e-14      -2.805564274584e-12       3.594611824361e-16       1.148839097094e-11       1.628380688399e-12      -7.794622830694e-15 
   96       3.643845786138e-10       9.888787659288e-14      -2.896832157843e-12       3.671283470854e-16       1.117779649216e-11       1.592431257846e-12      -7.719595261304e-15 
   97       3.687162330467e-10       1.009872617429e-13      -2.988467578012e-12       3.748818374422e-16       1.087824037453e-11       1.557636904463e-12      -7.637866221218e-15 
   98       3.730781573012e-10       1.030727008412e-13      -3.080402579734e-12       3.827222193492e-16       1.058947340139e-11       1.523984833247e-12      -7.550969585392e-15 
   99       3.774699160105e-10       1.051421992677e-13      -3.172567986097e-12       3.906500869241e-16       1.031113563334e-11       1.491450794621e-12      -7.460571140366e-15 
  100       3.818908841850e-10       1.071937357779e-13      -3.264893418451e-12       3.986660631669e-16       1.004275260681e-11       1.459998676451e-12      -7.368471865866e-15 
  101       3.863402397991e-10       1.092252629753e-13      -3.357307316239e-12       4.067708005665e-16       9.783731532689e-12       1.429580096075e-12      -7.276611216409e-15 
  102       3.908169563784e-10       1.112347077836e-13      -3.449736956816e-12       4.149649817092e-16       9.533357494918e-12       1.400133992317e-12      -7.187070402906e-15 
  103       3.953197955863e-10       1.132199719190e-13      -3.542108475269e-12       4.232493198846e-16       9.290789649120e-12       1.371586217513e-12      -7.102075674264e-15 
  104       3.998475621732e-10       1.151789834645e-13      -3.634347436490e-12       4.316245363041e-16       9.055251463971e-12       1.343866461204e-12      -7.023514042447e-15 
  105       4.043999240126e-10       1.171098585079e-13      -3.726380596678e-12       4.400912869389e-16       8.826638900864e-12       1.316962503597e-12      -6.951398885750e-15 
  106       4.089766895354e-10       1.190107623211e-13      -3.818134417850e-12       4.486502268846e-16       8.604987686044e-12       1.290872564485e-12      -6.885202223815e-15 
  107       4.135775507849e-10       1.208798612295e-13      -3.909534562430e-12       4.573020332147e-16       8.390284955344e-12       1.265588411131e-12      -6.824321713726e-15 
