# dimensionless total lensed [l(l+1)/2pi] C_l's
# for l=2 to 2500, i.e. number of multipoles equal to 2499
#
# -> if you prefer output in CAMB/HealPix/LensPix units/order, set 'format' to 'camb' in input file
# -> if you don't want to see such a header, set 'headers' to 'no' in input file
# -> for CMB lensing (phi), these are C_l^phi-phi for the lensing potential.
#    Remember the conversion factors:
#    C_l^dd (deflection) = l(l+1) C_l^phi-phi
#    C_l^gg (shear/convergence) = 1/4 (l(l+1))^2 C_l^phi-phi
#
# 1:l     2:TT                     3:EE                     4:TE                     5:BB                     6:phiphi                 7:TPhi                   8:Ephi               
    2       1.513662592094e-10       4.794188595534e-15       3.799578523351e-13       2.253237783212e-19       8.309219940014e-09       5.059266408427e-10      -2.012681271739e-12 
    3       1.417627108426e-10       6.054663328828e-15       4.281329240578e-13       4.507474933214e-19       5.130003704225e-09       3.573182066560e-10      -1.512238240492e-12 
    4       1.331037913570e-10       5.149027852742e-15       3.998174886528e-13       7.514658053143e-19       3.573562591259e-09       2.695890880480e-10      -9.768067745798e-13 
    5       1.266674806519e-10       3.373379027867e-15       3.391788268581e-13       1.127606185713e-18       2.668862454516e-09       2.123208462660e-10      -5.310363344447e-13 
    6       1.222179193363e-10       1.856592196031e-15       2.715913612367e-13       1.579323147364e-18       2.084784549405e-09       1.723415327940e-10      -2.072609345736e-13 
    7       1.192679726092e-10       9.992226800821e-16       2.117263960838e-13       2.106795249850e-18       1.680719987075e-09       1.430977386630e-10      -5.087597738742e-15 
    8       1.174591555675e-10       6.511395046413e-16       1.659106272091e-13       2.710221718232e-18       1.387271477536e-09       1.209823859915e-10       9.391182304942e-14 
    9       1.164929745597e-10       5.242419177863e-16       1.354210110332e-13       3.389818778116e-18       1.166770882072e-09       1.038447405357e-10       1.170809692617e-13 
   10       1.161218207163e-10       4.430323286942e-16       1.186565007155e-13       4.145815817035e-18       9.966897923179e-10       9.028468536466e-11       9.396021683251e-14 
   11       1.162495147639e-10       3.698732624576e-16       1.125852087948e-13       4.978451485269e-18       8.432950712414e-10       7.968992857254e-11       5.145270879517e-14 
   12       1.167301382360e-10       3.230967708057e-16       1.137810654417e-13       5.887969848386e-18       7.367613073719e-10       7.043995312102e-11       8.505587591648e-15 
   13       1.174939539420e-10       3.112600813370e-16       1.192702563199e-13       6.874616698980e-18       6.493067538525e-10       6.289701575266e-11      -2.257418789438e-14 
   14       1.184681186668e-10       3.231375233487e-16       1.268691631405e-13       7.938636126574e-18       5.765439618105e-10       5.631048398009e-11      -3.808019080294e-14 
   15       1.196502044688e-10       3.467116510574e-16       1.351593646129e-13       9.080267432732e-18       5.152969381449e-10       5.077373428665e-11      -3.911810713377e-14 
   16       1.209804958258e-10       3.813870977798e-16       1.435366712885e-13       1.029974246363e-17       4.632235115567e-10       4.602373406605e-11      -3.059067677248e-14 
   17       1.224488492271e-10       4.337937718273e-16       1.519028920719e-13       1.159728341524e-17       4.185542532483e-10       4.189545619238e-11      -1.835759274963e-14 
   18       1.240071256981e-10       5.088679471821e-16       1.604984576545e-13       1.297310093890e-17       3.797858192195e-10       3.827295644526e-11      -7.624982996830e-15 
   19       1.256668649838e-10       6.063636708554e-16       1.695641492031e-13       1.442739402366e-17       3.462998200292e-10       3.511646093382e-11      -8.588810238354e-16 
   20       1.274069393143e-10       7.237353631876e-16       1.792801944225e-13       1.596034704874e-17       3.168085719637e-10       3.233200516347e-11       6.140633129296e-16 
   21       1.292335475489e-10       8.603786551399e-16       1.896000317992e-13       1.757213285352e-17       2.908488563436e-10       2.986826279502e-11      -2.208169617883e-15 
   22       1.311281911363e-10       1.015944446288e-15       2.003017056811e-13       1.926290948702e-17       2.677987758808e-10       2.764885199778e-11      -7.116117081173e-15 
   23       1.330889093522e-10       1.190199876420e-15       2.109457590590e-13       2.103282480616e-17       2.473414689407e-10       2.565105211778e-11      -1.224149409392e-14 
   24       1.350986828339e-10       1.382868000198e-15       2.209891807142e-13       2.288201317152e-17       2.290044021204e-10       2.384709276987e-11      -1.576015275450e-14 
   25       1.371683932975e-10       1.594493966988e-15       2.301611688647e-13       2.481060182185e-17       2.125718455354e-10       2.222949874986e-11      -1.704108674175e-14 
   26       1.392986326941e-10       1.826088190156e-15       2.382861965569e-13       2.681870688802e-17       1.977462353799e-10       2.077868639842e-11      -1.603215642462e-14 
   27       1.414752063471e-10       2.079707532120e-15       2.452966682540e-13       2.890643943985e-17       1.843496111756e-10       1.946629957701e-11      -1.354582321360e-14 
   28       1.436712730564e-10       2.357723521677e-15       2.511871239926e-13       3.107390277320e-17       1.721509290788e-10       1.825430369578e-11      -1.074029384529e-14 
   29       1.458970027558e-10       2.661582363485e-15       2.560230513064e-13       3.332120189241e-17       1.610878243857e-10       1.714154900935e-11      -8.251362071246e-15 
   30       1.481634138170e-10       2.992427409245e-15       2.599278018926e-13       3.564843583271e-17       1.510414552461e-10       1.612986403126e-11      -6.645685461082e-15 
   31       1.504705096324e-10       3.351331712723e-15       2.630265328179e-13       3.805569762008e-17       1.418068491953e-10       1.521149708242e-11      -6.414017332781e-15 
   32       1.528206823699e-10       3.739213775397e-15       2.652635839045e-13       4.054308568681e-17       1.333362398189e-10       1.437599951769e-11      -7.275749610373e-15 
   33       1.552074832400e-10       4.156875702872e-15       2.665154749696e-13       4.311069672714e-17       1.255696433741e-10       1.360395388953e-11      -8.597287343480e-15 
   34       1.576176368302e-10       4.605072883175e-15       2.666409312495e-13       4.575862422550e-17       1.183982881274e-10       1.287231850673e-11      -9.698968400035e-15 
   35       1.600555792647e-10       5.084712213464e-15       2.654977005690e-13       4.848696331663e-17       1.117854097515e-10       1.218302590240e-11      -1.034768474971e-14 
   36       1.625257394814e-10       5.596715071354e-15       2.629289093758e-13       5.129580792872e-17       1.056779050565e-10       1.154356274632e-11      -1.042998895310e-14 
   37       1.650275555637e-10       6.141948126264e-15       2.587910443956e-13       5.418524858779e-17       9.999623209254e-11       1.095826545482e-11      -9.880199609466e-15 
   38       1.675634910429e-10       6.721176540552e-15       2.530702268291e-13       5.715536854716e-17       9.472566489693e-11       1.042525265343e-11      -8.880131373216e-15 
   39       1.701324372077e-10       7.335088365536e-15       2.458050480799e-13       6.020624663160e-17       8.984943777303e-11       9.937923310320e-12      -7.730196224652e-15 
   40       1.727267292694e-10       7.984301331908e-15       2.370572403807e-13       6.333795842095e-17       8.532098829724e-11       9.485325836917e-12      -6.801770491607e-15 
   41       1.753364764173e-10       8.669405567182e-15       2.268887453799e-13       6.655057248857e-17       8.108016574467e-11       9.055459910482e-12      -6.434822284549e-15 
   42       1.779658208554e-10       9.391119240000e-15       2.152805730110e-13       6.984413737057e-17       7.711444905604e-11       8.647323073123e-12      -6.579826205166e-15 
   43       1.806208698558e-10       1.015017604430e-14       2.021898872268e-13       7.321869054581e-17       7.341328354705e-11       8.262191673701e-12      -7.046902590667e-15 
   44       1.833048617135e-10       1.094728116392e-14       1.875717925463e-13       7.667426179501e-17       6.994971203337e-11       7.900204764532e-12      -7.599888982234e-15 
   45       1.860188668757e-10       1.178307346107e-14       1.713798386429e-13       8.021086865788e-17       6.668999358870e-11       7.560641950109e-12      -8.012370491325e-15 
   46       1.887648775720e-10       1.265800150718e-14       1.535683623434e-13       8.382850155211e-17       6.362896528197e-11       7.243095417165e-12      -8.262396461995e-15 
   47       1.915431103751e-10       1.357240836405e-14       1.340903777866e-13       8.752713394062e-17       6.076303156924e-11       6.946475463853e-12      -8.391175824506e-15 
   48       1.943508253320e-10       1.452656165954e-14       1.128966332408e-13       9.130672593461e-17       5.807949910470e-11       6.668583786394e-12      -8.449830851831e-15 
   49       1.971820718888e-10       1.552065023203e-14       8.993538087736e-14       9.516722388514e-17       5.555590041888e-11       6.406033728626e-12      -8.499964384592e-15 
   50       2.000304466917e-10       1.655481198605e-14       6.515850043742e-14       9.910855997683e-17       5.316675311602e-11       6.155234449253e-12      -8.600217755905e-15 
   51       2.028988389402e-10       1.762923415778e-14       3.854236392611e-14       1.031306518264e-16       5.090756947589e-11       5.915843378167e-12      -8.760327140010e-15 
   52       2.057918911150e-10       1.874407446531e-14       1.007223644464e-14       1.072334020690e-16       4.877619492331e-11       5.688113036820e-12      -8.975576801903e-15 
   53       2.087131086255e-10       1.989943043418e-14      -2.026351555917e-14       1.114166979485e-16       4.676562344017e-11       5.471880046859e-12      -9.239628580240e-15 
   54       2.116647474696e-10       2.109533751066e-14      -5.247335550982e-14       1.156804109085e-16       4.486367115038e-11       5.266535446389e-12      -9.544429851094e-15 
   55       2.146481192336e-10       2.233178153161e-14      -8.656310685450e-14       1.200244058888e-16       4.305668806786e-11       5.071285949629e-12      -9.879773254135e-15 
   56       2.176648521811e-10       2.360874408409e-14      -1.225378553114e-13       1.244485728524e-16       4.134252090864e-11       4.886081731435e-12      -1.023205863817e-14 
   57       2.207157466733e-10       2.492616510928e-14      -1.604003987052e-13       1.289528023752e-16       3.972019877803e-11       4.710867130972e-12      -1.058506234759e-14 
   58       2.238002912883e-10       2.628392823459e-14      -2.001506449812e-13       1.335369765983e-16       3.818601174171e-11       4.545291952784e-12      -1.092015520802e-14 
   59       2.269165667412e-10       2.768185944628e-14      -2.417855667594e-13       1.382009691980e-16       3.673334174176e-11       4.388693118508e-12      -1.121619692238e-14 
   60       2.300611498037e-10       2.911972576207e-14      -2.852991558881e-13       1.429446453555e-16       3.535249351266e-11       4.240076318595e-12      -1.144943046697e-14 
   61       2.332305713504e-10       3.059718333990e-14      -3.306832395151e-13       1.477678789953e-16       3.403338316581e-11       4.098388081985e-12      -1.159906121165e-14 
   62       2.364262902942e-10       3.211361119658e-14      -3.779302451643e-13       1.526706090930e-16       3.277469166334e-11       3.963444856884e-12      -1.166569656373e-14 
   63       2.396506706896e-10       3.366823764016e-14      -4.270309784895e-13       1.576527960102e-16       3.157647524765e-11       3.835180861857e-12      -1.165687674040e-14 
   64       2.429054802822e-10       3.526018466654e-14      -4.779737987732e-13       1.627144058482e-16       3.043741221510e-11       3.713367117399e-12      -1.158182856286e-14 
   65       2.461918437403e-10       3.688846502774e-14      -5.307446008152e-13       1.678554109663e-16       2.935472450366e-11       3.597602312395e-12      -1.145154022433e-14 
   66       2.495101958861e-10       3.855197930017e-14      -5.853267968222e-13       1.730757904987e-16       2.832409928061e-11       3.487303670575e-12      -1.127883605814e-14 
   67       2.528602349268e-10       4.024951295282e-14      -6.417012982965e-13       1.783755308731e-16       2.733961053022e-11       3.381697816983e-12      -1.107845130577e-14 
   68       2.562414642078e-10       4.197984500808e-14      -6.998464899095e-13       1.837546340236e-16       2.639529932476e-11       3.280023796361e-12      -1.086448701700e-14 
   69       2.596550494839e-10       4.374210614461e-14      -7.597381854554e-13       1.892131428090e-16       2.549046174079e-11       3.182210313517e-12      -1.064200877462e-14 
   70       2.631022556918e-10       4.553548822219e-14      -8.213496303966e-13       1.947511216989e-16       2.462529647365e-11       3.088319942307e-12      -1.041387214522e-14 
   71       2.665838605778e-10       4.735913903305e-14      -8.846514911021e-13       2.003686502348e-16       2.379930561187e-11       2.998345474278e-12      -1.018319955126e-14 
   72       2.701001229810e-10       4.921216222417e-14      -9.496118365323e-13       2.060658237449e-16       2.301125864642e-11       2.912206211002e-12      -9.953388034761e-15 
   73       2.736507511158e-10       5.109361721951e-14      -1.016196119923e-12       2.118427540588e-16       2.225915647997e-11       2.829744256426e-12      -9.728117021144e-15 
   74       2.772348708554e-10       5.300251914237e-14      -1.084367160468e-12       2.176995702214e-16       2.154019543610e-11       2.750720809204e-12      -9.511356082953e-15 
   75       2.808509940146e-10       5.493783873759e-14      -1.154085125007e-12       2.236364192084e-16       2.085073126855e-11       2.674812455044e-12      -9.307372703626e-15 
   76       2.844976743529e-10       5.689845692401e-14      -1.225309059481e-12       2.296534569934e-16       2.018718230587e-11       2.601695313640e-12      -9.119969081196e-15 
   77       2.881756838023e-10       5.888301905551e-14      -1.298001846218e-12       2.357508182933e-16       1.954900857945e-11       2.531323390492e-12      -8.950014704451e-15 
   78       2.918861773055e-10       6.089005381910e-14      -1.372126121557e-12       2.419286425785e-16       1.893621308988e-11       2.463694483644e-12      -8.797475844871e-15 
   79       2.956300229714e-10       6.291801525532e-14      -1.447642819514e-12       2.481870837387e-16       1.834843440386e-11       2.398764956806e-12      -8.662138684916e-15 
   80       2.994077844608e-10       6.496528175022e-14      -1.524511185246e-12       2.545263105991e-16       1.778492992117e-11       2.336447833227e-12      -8.543601272624e-15 
   81       3.032197033711e-10       6.703015502726e-14      -1.602688788515e-12       2.609465074376e-16       1.724455914162e-11       2.276610889565e-12      -8.441265476222e-15 
   82       3.070656816222e-10       6.911085913924e-14      -1.682131537150e-12       2.674478745016e-16       1.672576693206e-11       2.219074749757e-12      -8.354328938721e-15 
   83       3.109452638408e-10       7.120553946027e-14      -1.762793690511e-12       2.740306285243e-16       1.622656679333e-11       2.163610978890e-12      -8.281777032525e-15 
   84       3.148579337403e-10       7.331232263161e-14      -1.844627259402e-12       2.806950001384e-16       1.574502267984e-11       2.109997284577e-12      -8.222343786501e-15 
   85       3.188040982939e-10       7.542951002572e-14      -1.927580062001e-12       2.874412244926e-16       1.528082288658e-11       2.058197810978e-12      -8.174404847976e-15 
   86       3.227842351790e-10       7.755541465533e-14      -2.011597368830e-12       2.942695500198e-16       1.483393761324e-11       2.008209377882e-12      -8.136051942765e-15 
   87       3.267985811343e-10       7.968830308724e-14      -2.096622490761e-12       3.011802418593e-16       1.440413537920e-11       1.960006098277e-12      -8.105113884413e-15 
   88       3.308471196224e-10       8.182639545868e-14      -2.182596782159e-12       3.081735823221e-16       1.399097466960e-11       1.913538432013e-12      -8.079148007320e-15 
   89       3.349295684919e-10       8.396786549367e-14      -2.269459644046e-12       3.152498713550e-16       1.359379558134e-11       1.868732239458e-12      -8.055431599880e-15 
   90       3.390453676401e-10       8.611084051940e-14      -2.357148527242e-12       3.224094270051e-16       1.321171146908e-11       1.825487835162e-12      -8.030953337609e-15 
   91       3.431936666753e-10       8.825340148262e-14      -2.445598935522e-12       3.296525858849e-16       1.284360059125e-11       1.783679041514e-12      -8.002404716277e-15 
   92       3.473733125794e-10       9.039358296596e-14      -2.534744428767e-12       3.369797036364e-16       1.248809775606e-11       1.743152242406e-12      -7.966171485044e-15 
   93       3.515831950886e-10       9.252940640940e-14      -2.624517837380e-12       3.443911658043e-16       1.214391760020e-11       1.703764609540e-12      -7.919188050508e-15 
   94       3.558233690533e-10       9.465898545446e-14      -2.714855107616e-12       3.518874213171e-16       1.181089818800e-11       1.665507413404e-12      -7.861666290710e-15 
   95       3.600940788558e-10       9.678043654774e-14      -2.805692043109e-12       3.594689549236e-16       1.148909965428e-11       1.628399594884e-12      -7.794763225348e-15 
   96       3.643954084048e-10       9.889184761345e-14      -2.896963164649e-12       3.671362778330e-16       1.117848280613e-11       1.592449841955e-12      -7.719757848585e-15 
   97       3.687272737086e-10       1.009912785256e-13      -2.988601729966e-12       3.748899283222e-16       1.087890532115e-11       1.557656181053e-12      -7.638054408044e-15 
   98       3.730894154475e-10       1.030767615800e-13      -3.080539753505e-12       3.827304723429e-16       1.059011794577e-11       1.524005568456e-12      -7.551185683799e-15 
   99       3.774813915467e-10       1.051463019668e-13      -3.172708026205e-12       3.906585041296e-16       1.031176069351e-11       1.491473481658e-12      -7.460816267368e-15 
  100       3.819025697492e-10       1.071978782423e-13      -3.265036135275e-12       3.986746468069e-16       1.004335904325e-11       1.460023510749e-12      -7.368745840703e-15 
  101       3.863521201884e-10       1.092294428013e-13      -3.357452483981e-12       4.067795529967e-16       9.784320137495e-12       1.429606949792e-12      -7.276912455186e-15 
  102       3.908290079612e-10       1.112389223491e-13      -3.449884311413e-12       4.149739054258e-16       9.533928980701e-12       1.400162388196e-12      -7.187395810620e-15 
  103       3.953319857004e-10       1.132242183739e-13      -3.542257712274e-12       4.232584175336e-16       9.291344637504e-12       1.371615302096e-12      -7.102420534222e-15 
  104       3.998598509272e-10       1.151832587834e-13      -3.634498221770e-12       4.316338106692e-16       9.055790492791e-12       1.343895067736e-12      -7.023872295685e-15 
  105       4.044122736982e-10       1.171141597412e-13      -3.726532617691e-12       4.401007408672e-16       8.827162490926e-12       1.316989499160e-12      -6.951764646096e-15 
  106       4.089890674352e-10       1.190150866746e-13      -3.818287399774e-12       4.486598632665e-16       8.605496355776e-12       1.290896950279e-12      -6.885570220135e-15 
  107       4.135899296668e-10       1.208842060836e-13      -3.909688271996e-12       4.573118549839e-16       8.390779217052e-12       1.265609336189e-12      -6.824687356147e-15 
