# dimensionless total [l(l+1)/2pi] C_l's
# for l=2 to 3000, i.e. number of multipoles equal to 2999
#
# -> if you prefer output in CAMB/HealPix/LensPix units/order, set 'format' to 'camb' in input file
# -> if you don't want to see such a header, set 'headers' to 'no' in input file
# -> for CMB lensing (phi), these are C_l^phi-phi for the lensing potential.
#    Remember the conversion factors:
#    C_l^dd (deflection) = l(l+1) C_l^phi-phi
#    C_l^gg (shear/convergence) = 1/4 (l(l+1))^2 C_l^phi-phi
#
# 1:l     2:TT                     3:EE                     4:TE                     5:BB                     6:phiphi                 7:TPhi                   8:Ephi               
    2       1.513635040121e-10       4.793928202837e-15       3.799561263508e-13       0.000000000000e+00       8.308915983639e-09       5.059103553918e-10      -2.012654156608e-12 
    3       1.417604743395e-10       6.054160656772e-15       4.281339620070e-13       0.000000000000e+00       5.129794366931e-09       3.573056878325e-10      -1.512214630757e-12 
    4       1.331009375206e-10       5.148211329478e-15       3.998160002905e-13       0.000000000000e+00       3.573405730792e-09       2.695793033169e-10      -9.767897662799e-13 
    5       1.266634821330e-10       3.372198241392e-15       3.391746974847e-13       0.000000000000e+00       2.668738811981e-09       2.123128783416e-10      -5.310271926807e-13 
    6       1.222126764496e-10       1.854977667979e-15       2.715867811573e-13       0.000000000000e+00       2.084683454661e-09       1.723347571928e-10      -2.072581027559e-13 
    7       1.192616501061e-10       9.970911015319e-16       2.117221373849e-13       0.000000000000e+00       1.680635502401e-09       1.430918209854e-10      -5.088516164673e-15 
    8       1.174516235452e-10       6.484088272999e-16       1.659068873389e-13       0.000000000000e+00       1.387199523214e-09       1.209771501053e-10       9.390943513662e-14 
    9       1.164840396554e-10       5.208336904931e-16       1.354179532645e-13       0.000000000000e+00       1.166708238064e-09       1.038400152188e-10       1.170786533124e-13 
   10       1.161114481316e-10       4.388695076288e-16       1.186538558352e-13       0.000000000000e+00       9.966344577632e-10       9.028032006028e-11       9.395875393819e-14 
   11       1.162375091343e-10       3.648784481907e-16       1.125828952080e-13       0.000000000000e+00       8.432456491589e-10       7.968583029714e-11       5.145226195576e-14 
   12       1.167163690842e-10       3.171914830686e-16       1.137791298166e-13       0.000000000000e+00       7.367169778839e-10       7.043626098928e-11       8.505991911112e-15 
   13       1.174782935882e-10       3.043653949125e-16       1.192688068467e-13       0.000000000000e+00       6.492666309890e-10       6.289370605187e-11      -2.257329988705e-14 
   14       1.184503786650e-10       3.151744925698e-16       1.268683613113e-13       0.000000000000e+00       5.765075773755e-10       5.630738139466e-11      -3.807914715574e-14 
   15       1.196302401391e-10       3.376015817567e-16       1.351594220985e-13       0.000000000000e+00       5.152637343138e-10       5.077081520672e-11      -3.911716887123e-14 
   16       1.209582912322e-10       3.710509730041e-16       1.435380251072e-13       0.000000000000e+00       4.631930539737e-10       4.602110666769e-11      -3.058994111049e-14 
   17       1.224242344494e-10       4.221515567849e-16       1.519058543648e-13       0.000000000000e+00       4.185262554067e-10       4.189312423892e-11      -1.835704650194e-14 
   18       1.239800496985e-10       4.958399908386e-16       1.605034618276e-13       0.000000000000e+00       3.797600169176e-10       3.827077110671e-11      -7.624512958744e-15 
   19       1.256372575021e-10       5.918698023669e-16       1.695715987182e-13       0.000000000000e+00       3.462759572025e-10       3.511436783800e-11      -8.583997681358e-16 
   20       1.273746375234e-10       7.076945550766e-16       1.792903882232e-13       0.000000000000e+00       3.167864540470e-10       3.233011709758e-11       6.145681829632e-16 
   21       1.291984351871e-10       8.427100990758e-16       1.896133716536e-13       0.000000000000e+00       2.908283142138e-10       2.986660928161e-11      -2.207634967091e-15 
   22       1.310902389292e-10       9.965679456021e-16       2.003187654205e-13       0.000000000000e+00       2.677796766113e-10       2.764731075967e-11      -7.115533780669e-15 
   23       1.330480667680e-10       1.169035199375e-15       2.109671593871e-13       0.000000000000e+00       2.473236853702e-10       2.564955445293e-11      -1.224085769221e-14 
   24       1.350548436153e-10       1.359834657326e-15       2.210155366640e-13       0.000000000000e+00       2.289878176783e-10       2.384568543908e-11      -1.575948662164e-14 
   25       1.371214451504e-10       1.569511187754e-15       2.301930627227e-13       0.000000000000e+00       2.125563499726e-10       2.222821918716e-11      -1.704044525794e-14 
   26       1.392484749856e-10       1.799075036636e-15       2.383241779350e-13       0.000000000000e+00       1.977317335962e-10       2.077752562339e-11      -1.603161489017e-14 
   27       1.414217517693e-10       2.050583547179e-15       2.453413476230e-13       0.000000000000e+00       1.843360177771e-10       1.946524519972e-11      -1.354540899189e-14 
   28       1.436144471394e-10       2.326408922132e-15       2.512391884347e-13       0.000000000000e+00       1.721381722462e-10       1.825335041389e-11      -1.073996577629e-14 
   29       1.458367295857e-10       2.627997509674e-15       2.560831631936e-13       0.000000000000e+00       1.610758340207e-10       1.714067765154e-11      -8.251061254503e-15 
   30       1.480996102793e-10       2.956492628299e-15       2.599965519192e-13       0.000000000000e+00       1.510301660610e-10       1.612903213875e-11      -6.645351837318e-15 
   31       1.504030850427e-10       3.312967426763e-15       2.631044486851e-13       0.000000000000e+00       1.417962066180e-10       1.521064652365e-11      -6.413597868046e-15 
   32       1.527495447713e-10       3.698341190632e-15       2.653512574306e-13       0.000000000000e+00       1.333261927710e-10       1.437510750344e-11      -7.275226601808e-15 
   33       1.551325415662e-10       4.113417164917e-15       2.666136172198e-13       0.000000000000e+00       1.255601464665e-10       1.360305823751e-11      -8.596695492695e-15 
   34       1.575388031958e-10       4.558951890319e-15       2.667503606671e-13       0.000000000000e+00       1.183893049487e-10       1.287151138987e-11      -9.698389266006e-15 
   35       1.599727774418e-10       5.035852697069e-15       2.656191975980e-13       0.000000000000e+00       1.117769060130e-10       1.218237321145e-11      -1.034717746721e-14 
   36       1.624389096892e-10       5.545041149545e-15       2.630631564919e-13       0.000000000000e+00       1.056698490045e-10       1.154307100472e-11      -1.042956165299e-14 
   37       1.649366535167e-10       6.087384137077e-15       2.589386283839e-13       0.000000000000e+00       9.998859624998e-11       1.095788278724e-11      -9.879810002946e-15 
   38       1.674684720604e-10       6.663647396195e-15       2.532317401040e-13       0.000000000000e+00       9.471842209707e-11       1.042492284923e-11      -8.879732864530e-15 
   39       1.700332503248e-10       7.274519688404e-15       2.459811234007e-13       0.000000000000e+00       8.984256140206e-11       9.937604085277e-12      -7.729753284318e-15 
   40       1.726233151822e-10       7.920619505741e-15       2.372485599256e-13       0.000000000000e+00       8.531445429295e-11       9.484993276208e-12      -6.801262150269e-15 
   41       1.752287690057e-10       8.602537988434e-15       2.270960212350e-13       0.000000000000e+00       8.107395356561e-11       9.055109143761e-12      -6.434243080998e-15 
   42       1.778537611476e-10       9.320995245880e-15       2.155044290992e-13       0.000000000000e+00       7.710853872997e-11       8.646955426711e-12      -6.579177917773e-15 
   43       1.805044113857e-10       1.007672738606e-14       2.024308088431e-13       0.000000000000e+00       7.340765566412e-11       8.261811464353e-12      -7.046192592828e-15 
   44       1.831839726463e-10       1.087044231434e-14       1.878301010654e-13       0.000000000000e+00       6.994434893087e-11       7.899819819224e-12      -7.599131176577e-15 
   45       1.858935287564e-10       1.170278160610e-14       1.716556913662e-13       0.000000000000e+00       6.668487987614e-11       7.560262996356e-12      -8.011584323664e-15 
   46       1.886350724404e-10       1.257419544312e-14       1.538618398804e-13       0.000000000000e+00       6.362408592724e-11       7.242731615412e-12      -8.261599372809e-15 
   47       1.914088162510e-10       1.348502818687e-14       1.344015077947e-13       0.000000000000e+00       6.075837185688e-11       6.946132692658e-12      -8.390380385525e-15 
   48       1.942120148288e-10       1.443554875196e-14       1.132253901400e-13       0.000000000000e+00       5.807504533655e-11       6.668263947981e-12      -8.449043640162e-15 
   49       1.970387107516e-10       1.542594724624e-14       9.028168575227e-14       0.000000000000e+00       5.555164066664e-11       6.405734016108e-12      -8.499184793103e-15 
   50       1.998824945925e-10       1.645636286761e-14       6.552221557851e-14       0.000000000000e+00       5.316267744456e-11       6.154947898249e-12      -8.599438719141e-15 
   51       2.027462579419e-10       1.752698431647e-14       3.892326914294e-14       0.000000000000e+00       5.090366828911e-11       5.915563771523e-12      -8.759542367574e-15 
   52       2.056346484179e-10       1.863797083134e-14       1.047001898164e-14       0.000000000000e+00       4.877245876759e-11       5.687836571573e-12      -8.974783160561e-15 
   53       2.085511771962e-10       1.978942147006e-14      -1.984926606563e-14       0.000000000000e+00       4.676204336850e-11       5.471605805117e-12      -9.238826679828e-15 
   54       2.114981067050e-10       2.098137322083e-14      -5.204315214896e-14       0.000000000000e+00       4.486023911110e-11       5.266265890121e-12      -9.543624659824e-15 
   55       2.144767545151e-10       2.221381363283e-14      -8.611757378982e-14       0.000000000000e+00       4.305339703189e-11       5.071026583936e-12      -9.878973705056e-15 
   56       2.174887506999e-10       2.348672670996e-14      -1.220777465917e-13       0.000000000000e+00       4.133936407993e-11       4.885837976566e-12      -1.023127384830e-14 
   57       2.205348961185e-10       2.480005510936e-14      -1.599266093428e-13       0.000000000000e+00       3.971716953610e-11       4.710643334078e-12      -1.058430043439e-14 
   58       2.236146795874e-10       2.615368532619e-14      -1.996642192953e-13       0.000000000000e+00       3.818310386352e-11       4.545091185165e-12      -1.091942305956e-14 
   59       2.267261817901e-10       2.754744637029e-14      -2.412877069161e-13       0.000000000000e+00       3.673054963698e-11       4.388516963447e-12      -1.121549995644e-14 
   60       2.298659791873e-10       2.898110844294e-14      -2.847912306388e-13       0.000000000000e+00       3.534981247240e-11       4.239924649785e-12      -1.144877237908e-14 
   61       2.330306025927e-10       3.045433084553e-14      -3.301667826848e-13       0.000000000000e+00       3.403080936096e-11       4.098259178786e-12      -1.159844399801e-14 
   62       2.362215128642e-10       3.196649503611e-14      -3.774069202541e-13       0.000000000000e+00       3.277222129563e-11       3.963336639743e-12      -1.166512146559e-14 
   63       2.394410766291e-10       3.351683158187e-14      -4.265025698754e-13       0.000000000000e+00       3.157410438077e-11       3.835091243446e-12      -1.165634445513e-14 
   64       2.426910643348e-10       3.510446474444e-14      -4.774422125491e-13       0.000000000000e+00       3.043513685793e-11       3.713294031240e-12      -1.158133918540e-14 
   65       2.459726034872e-10       3.672840954582e-14      -5.302118655026e-13       0.000000000000e+00       2.935254069852e-11       3.597543743059e-12      -1.145109318673e-14 
   66       2.492861318885e-10       3.838756883422e-14      -5.847950639456e-13       0.000000000000e+00       2.832200319659e-11       3.487257685464e-12      -1.127843006708e-14 
   67       2.526313508760e-10       4.008073034995e-14      -6.411728428256e-13       0.000000000000e+00       2.733759856163e-11       3.381662599681e-12      -1.107808427808e-14 
   68       2.560077672927e-10       4.180667530515e-14      -6.993237159611e-13       0.000000000000e+00       2.639336810982e-11       3.279997640787e-12      -1.086415612817e-14 
   69       2.594165514506e-10       4.356453622991e-14      -7.592236493159e-13       0.000000000000e+00       2.548860791103e-11       3.182191487708e-12      -1.064171087729e-14 
   70       2.628589733644e-10       4.535350669733e-14      -8.208460495090e-13       0.000000000000e+00       2.462351662696e-11       3.088306658865e-12      -1.041360388944e-14 
   71       2.663358161929e-10       4.717273614462e-14      -8.841617479740e-13       0.000000000000e+00       2.379759636831e-11       2.998335899781e-12      -1.018295739734e-14 
   72       2.698473445341e-10       4.902132979096e-14      -9.491389826466e-13       0.000000000000e+00       2.300961670697e-11       2.912198475958e-12      -9.953168267134e-15 
   73       2.733932727204e-10       5.089834855539e-14      -1.015743379653e-12       0.000000000000e+00       2.225757868816e-11       2.829736465747e-12      -9.727915763108e-15 
   74       2.769727331138e-10       5.280280897469e-14      -1.083937935000e-12       0.000000000000e+00       2.153867884259e-11       2.750711053229e-12      -9.511169312433e-15 
   75       2.805842444020e-10       5.473368312130e-14      -1.153682996258e-12       0.000000000000e+00       2.084927319860e-11       2.674798821083e-12      -9.307196269868e-15 
   76       2.842263674207e-10       5.668985310301e-14      -1.224937789418e-12       0.000000000000e+00       2.018578035633e-11       2.601675961201e-12      -9.119798846768e-15 
   77       2.878998807772e-10       5.866996516453e-14      -1.297665361362e-12       0.000000000000e+00       1.954766038307e-11       2.531296829777e-12      -8.949847087450e-15 
   78       2.916059462049e-10       6.067254870788e-14      -1.371828509591e-12       0.000000000000e+00       1.893491627502e-11       2.463659688981e-12      -8.797308035985e-15 
   79       2.953454389094e-10       6.269605835324e-14      -1.447388330178e-12       0.000000000000e+00       1.834718662508e-11       2.398721422027e-12      -8.661968750052e-15 
   80       2.991189299627e-10       6.473887292546e-14      -1.524304231139e-12       0.000000000000e+00       1.778372889133e-11       2.336395628875e-12      -8.543428259052e-15 
   81       3.029266686961e-10       6.679929444071e-14      -1.602533945806e-12       0.000000000000e+00       1.724340266530e-11       2.276550721927e-12      -8.441089522215e-15 
   82       3.067685650945e-10       6.887554709292e-14      -1.682033546204e-12       0.000000000000e+00       1.672465294044e-11       2.219008021731e-12      -8.354151386711e-15 
   83       3.106441721898e-10       7.096577624044e-14      -1.762757456417e-12       0.000000000000e+00       1.622549338047e-11       2.163539852672e-12      -8.281600545762e-15 
   84       3.145529808315e-10       7.306810846142e-14      -1.844657851136e-12       0.000000000000e+00       1.574398810058e-11       2.109924547737e-12      -8.222172083558e-15 
   85       3.184953987121e-10       7.518084537938e-14      -1.927682707421e-12       0.000000000000e+00       1.527982542932e-11       2.058126111214e-12      -8.174241210337e-15 
   86       3.224719021178e-10       7.730230026112e-14      -2.011777452977e-12       0.000000000000e+00       1.483297557953e-11       2.008140987295e-12      -8.135898751418e-15 
   87       3.264827258073e-10       7.943073981747e-14      -2.096885555265e-12       0.000000000000e+00       1.440320710207e-11       1.959942865314e-12      -8.104972521083e-15 
   88       3.305278506562e-10       8.156438421620e-14      -2.182948524543e-12       0.000000000000e+00       1.399007853250e-11       1.913481731893e-12      -8.079018752734e-15 
   89       3.346069912999e-10       8.370140709495e-14      -2.269905916901e-12       0.000000000000e+00       1.359293003788e-11       1.868682923098e-12      -8.055313529049e-15 
   90       3.387195837779e-10       8.583993557414e-14      -2.357695337308e-12       0.000000000000e+00       1.321087506350e-11       1.825446176594e-12      -8.030844212140e-15 
   91       3.428647731771e-10       8.797805026989e-14      -2.446252442645e-12       0.000000000000e+00       1.284279197961e-11       1.783644683795e-12      -8.002300873713e-15 
   92       3.470414012759e-10       9.011378530696e-14      -2.535510944747e-12       0.000000000000e+00       1.248731572819e-11       1.743124142023e-12      -7.966067725220e-15 
   93       3.512483546841e-10       9.224516126609e-14      -2.625403821668e-12       0.000000000000e+00       1.214316107298e-11       1.703741136019e-12      -7.919077925864e-15 
   94       3.554856959989e-10       9.437028966637e-14      -2.715867153254e-12       0.000000000000e+00       1.181016610612e-11       1.665486944527e-12      -7.861543684414e-15 
   95       3.597536807210e-10       9.648728429405e-14      -2.806836870743e-12       0.000000000000e+00       1.148839097094e-11       1.628380688399e-12      -7.794622830694e-15 
   96       3.640524046077e-10       9.859423012702e-14      -2.898247619306e-12       0.000000000000e+00       1.117779649216e-11       1.592431257846e-12      -7.719595261304e-15 
   97       3.683817962654e-10       1.006891837998e-13      -2.990032777668e-12       0.000000000000e+00       1.087824037453e-11       1.557636904463e-12      -7.637866221218e-15 
   98       3.727416097416e-10       1.027701740687e-13      -3.082124477737e-12       0.000000000000e+00       1.058947340139e-11       1.523984833247e-12      -7.550969585392e-15 
   99       3.771314171167e-10       1.048352022765e-13      -3.174453624226e-12       0.000000000000e+00       1.031113563334e-11       1.491450794621e-12      -7.460571140366e-15 
  100       3.815506010969e-10       1.068822428178e-13      -3.266949914278e-12       0.000000000000e+00       1.004275260681e-11       1.459998676451e-12      -7.368471865866e-15 
  101       3.859983476057e-10       1.089092436038e-13      -3.359541857091e-12       0.000000000000e+00       9.783731532689e-12       1.429580096075e-12      -7.276611216409e-15 
  102       3.904736383763e-10       1.109141265276e-13      -3.452156793545e-12       0.000000000000e+00       9.533357494918e-12       1.400133992317e-12      -7.187070402906e-15 
  103       3.949752435440e-10       1.128947879286e-13      -3.544720915823e-12       0.000000000000e+00       9.290789649120e-12       1.371586217513e-12      -7.102075674264e-15 
  104       3.995019758674e-10       1.148491500951e-13      -3.637159840710e-12       0.000000000000e+00       9.055251463971e-12       1.343866461204e-12      -7.023514042447e-15 
  105       4.040535084608e-10       1.167753226905e-13      -3.729400375411e-12       0.000000000000e+00       8.826638900864e-12       1.316962503597e-12      -6.951398885750e-15 
  106       4.086296542292e-10       1.186714641017e-13      -3.821369027964e-12       0.000000000000e+00       8.604987686044e-12       1.290872564485e-12      -6.885202223815e-15 
  107       4.132301096256e-10       1.205357333630e-13      -3.912991500269e-12       0.000000000000e+00       8.390284955344e-12       1.265588411131e-12      -6.824321713726e-15 
