# dimensionless total [l(l+1)/2pi] C_l's
# for l=2 to 3000, i.e. number of multipoles equal to 2999
#
# -> if you prefer output in CAMB/HealPix/LensPix units/order, set 'format' to 'camb' in input file
# -> if you don't want to see such a header, set 'headers' to 'no' in input file
# -> for CMB lensing (phi), these are C_l^phi-phi for the lensing potential.
#    Remember the conversion factors:
#    C_l^dd (deflection) = l(l+1) C_l^phi-phi
#    C_l^gg (shear/convergence) = 1/4 (l(l+1))^2 C_l^phi-phi
#
# 1:l     2:TT                     3:EE                     4:TE                     5:BB                     6:phiphi                 7:TPhi                   8:Ephi               
    2       1.513644915638e-10       4.793959488443e-15       3.799586057655e-13       0.000000000000e+00       8.308969920380e-09       5.059136535073e-10      -2.012667291825e-12 
    3       1.417613995406e-10       6.054200168041e-15       4.281367559169e-13       0.000000000000e+00       5.129827580733e-09       3.573080195951e-10      -1.512224499781e-12 
    4       1.331018061315e-10       5.148244929934e-15       3.998186094513e-13       0.000000000000e+00       3.573428812576e-09       2.695810636797e-10      -9.767961405289e-13 
    5       1.266643083628e-10       3.372220251084e-15       3.391769113637e-13       0.000000000000e+00       2.668756012312e-09       2.123142607820e-10      -5.310306576470e-13 
    6       1.222134730936e-10       1.854989774916e-15       2.715885540042e-13       0.000000000000e+00       2.084696881866e-09       1.723358771124e-10      -2.072594547146e-13 
    7       1.192624285373e-10       9.970976091732e-16       2.117235193341e-13       0.000000000000e+00       1.680646345455e-09       1.430927548484e-10      -5.088549102286e-15 
    8       1.174523899171e-10       6.484130592218e-16       1.659079700425e-13       0.000000000000e+00       1.387208500797e-09       1.209779422015e-10       9.391004754374e-14 
    9       1.164847993225e-10       5.208370898440e-16       1.354188370035e-13       0.000000000000e+00       1.166715808766e-09       1.038406903385e-10       1.170794168627e-13 
   10       1.161122036206e-10       4.388723719593e-16       1.186546303016e-13       0.000000000000e+00       9.966409319446e-10       9.028090290832e-11       9.395936766184e-14 
   11       1.162382676168e-10       3.648808297239e-16       1.125836299573e-13       0.000000000000e+00       8.432511331738e-10       7.968634941658e-11       5.145259898896e-14 
   12       1.167171301067e-10       3.171935531164e-16       1.137798725727e-13       0.000000000000e+00       7.367217682286e-10       7.043672500693e-11       8.506047547432e-15 
   13       1.174790599800e-10       3.043673813674e-16       1.192695845303e-13       0.000000000000e+00       6.492708519543e-10       6.289411627632e-11      -2.257344887647e-14 
   14       1.184511477497e-10       3.151765499892e-16       1.268691891922e-13       0.000000000000e+00       5.765113246651e-10       5.630774187857e-11      -3.807939714211e-14 
   15       1.196310198646e-10       3.376037846907e-16       1.351603040965e-13       0.000000000000e+00       5.152670829370e-10       5.077114303433e-11      -3.911742326682e-14 
   16       1.209590792616e-10       3.710533959730e-16       1.435389615344e-13       0.000000000000e+00       4.631960636797e-10       4.602141189794e-11      -3.059013831435e-14 
   17       1.224250329738e-10       4.221543124227e-16       1.519068466129e-13       0.000000000000e+00       4.185289744175e-10       4.189340102438e-11      -1.835716515761e-14 
   18       1.239808569441e-10       4.958432283545e-16       1.605045103258e-13       0.000000000000e+00       3.797624836643e-10       3.827101702329e-11      -7.624563490117e-15 
   19       1.256380730677e-10       5.918736685626e-16       1.695727055373e-13       0.000000000000e+00       3.462782060786e-10       3.511458970347e-11      -8.584072246884e-16 
   20       1.273754648198e-10       7.076991764699e-16       1.792915580461e-13       0.000000000000e+00       3.167885110663e-10       3.233032857392e-11       6.145708720876e-16 
   21       1.291992747841e-10       8.427155987692e-16       1.896146092901e-13       0.000000000000e+00       2.908302023713e-10       2.986681190367e-11      -2.207649269898e-15 
   22       1.310910869210e-10       9.965744468331e-16       2.003200741801e-13       0.000000000000e+00       2.677814148504e-10       2.764749032828e-11      -7.115579097652e-15 
   23       1.330489230106e-10       1.169042826682e-15       2.109685389563e-13       0.000000000000e+00       2.473252905696e-10       2.564971093097e-11      -1.224093634284e-14 
   24       1.350557132980e-10       1.359843535157e-15       2.210169821835e-13       0.000000000000e+00       2.289893036404e-10       2.384583886024e-11      -1.575958912987e-14 
   25       1.371223295489e-10       1.569521438085e-15       2.301945672520e-13       0.000000000000e+00       2.125577290941e-10       2.222837442951e-11      -1.704055749638e-14 
   26       1.392493696423e-10       1.799086780796e-15       2.383257335451e-13       0.000000000000e+00       1.977330163360e-10       2.077766467718e-11      -1.603172159329e-14 
   27       1.414226569964e-10       2.050596924276e-15       2.453429472170e-13       0.000000000000e+00       1.843372134354e-10       1.946536197543e-11      -1.354549970269e-14 
   28       1.436153703164e-10       2.326424094278e-15       2.512408262916e-13       0.000000000000e+00       1.721392886191e-10       1.825345963626e-11      -1.074003729172e-14 
   29       1.458376760860e-10       2.628014648573e-15       2.560848334290e-13       0.000000000000e+00       1.610768784973e-10       1.714079159249e-11      -8.251114850720e-15 
   30       1.481005795323e-10       2.956511910531e-15       2.599982479834e-13       0.000000000000e+00       1.510311452567e-10       1.612915130766e-11      -6.645393140936e-15 
   31       1.504040706233e-10       3.312989033788e-15       2.631061635178e-13       0.000000000000e+00       1.417971258145e-10       1.521075987579e-11      -6.413636451167e-15 
   32       1.527505413299e-10       3.698365312785e-15       2.653529844151e-13       0.000000000000e+00       1.333270569384e-10       1.437520606128e-11      -7.275270660466e-15 
   33       1.551335475251e-10       4.113444002902e-15       2.666153506608e-13       0.000000000000e+00       1.255609601845e-10       1.360314042496e-11      -8.596749502172e-15 
   34       1.575398207450e-10       4.558981653196e-15       2.667520955214e-13       0.000000000000e+00       1.183900720892e-10       1.287158300177e-11      -9.698453448999e-15 
   35       1.599738090369e-10       5.035885591597e-15       2.656209272604e-13       0.000000000000e+00       1.117776302083e-10       1.218244025586e-11      -1.034724946641e-14 
   36       1.624399568202e-10       5.545077374870e-15       2.630648718077e-13       0.000000000000e+00       1.056705335404e-10       1.154313717719e-11      -1.042963669641e-14 
   37       1.649377166393e-10       6.087423886339e-15       2.589403177692e-13       0.000000000000e+00       9.998924389450e-11       1.095794931952e-11      -9.879881372260e-15 
   38       1.674695514460e-10       6.663690874797e-15       2.532333918325e-13       0.000000000000e+00       9.471903552250e-11       1.042499024368e-11      -8.879795490618e-15 
   39       1.700343462753e-10       7.274567121206e-15       2.459827264389e-13       0.000000000000e+00       8.984314317196e-11       9.937672550395e-12      -7.729805287455e-15 
   40       1.726244279935e-10       7.920671140028e-15       2.372501042095e-13       0.000000000000e+00       8.531500666878e-11       9.485062650738e-12      -6.801305606495e-15 
   41       1.752298989523e-10       8.602594091126e-15       2.270974976580e-13       0.000000000000e+00       8.107447841843e-11       9.055178895843e-12      -6.434283690069e-15 
   42       1.778549085428e-10       9.321056080769e-15       2.155058284756e-13       0.000000000000e+00       7.710903784907e-11       8.647024919645e-12      -6.579220827447e-15 
   43       1.805055765841e-10       1.007679320484e-14       2.024321215922e-13       0.000000000000e+00       7.340813076957e-11       8.261880034022e-12      -7.046240898426e-15 
   44       1.831851560230e-10       1.087051335278e-14       1.878313171705e-13       0.000000000000e+00       6.994480156688e-11       7.899886779362e-12      -7.599185431072e-15 
   45       1.858947306967e-10       1.170285808555e-14       1.716568003841e-13       0.000000000000e+00       6.668531136706e-11       7.560327661332e-12      -8.011642659841e-15 
   46       1.886362933758e-10       1.257427759017e-14       1.538628311273e-13       0.000000000000e+00       6.362449756364e-11       7.242793380709e-12      -8.261659749834e-15 
   47       1.914100566590e-10       1.348511623994e-14       1.344023704026e-13       0.000000000000e+00       6.075876490592e-11       6.946191075688e-12      -8.390441295727e-15 
   48       1.942132752191e-10       1.443564296287e-14       1.132261130638e-13       0.000000000000e+00       5.807542098292e-11       6.668318614768e-12      -8.449104236273e-15 
   49       1.970399916504e-10       1.542604788196e-14       9.028225777564e-14       0.000000000000e+00       5.555199994915e-11       6.405784809412e-12      -8.499245022771e-15 
   50       1.998837964547e-10       1.645647020884e-14       6.552262529778e-14       0.000000000000e+00       5.316302123661e-11       6.154994857444e-12      -8.599499273060e-15 
   51       2.027475808287e-10       1.752709864572e-14       3.892350487517e-14       0.000000000000e+00       5.090399743482e-11       5.915607121744e-12      -8.759603991948e-15 
   52       2.056359918427e-10       1.863809242884e-14       1.047006872709e-14       0.000000000000e+00       4.877277409697e-11       5.687876737755e-12      -8.974846445264e-15 
   53       2.085525400311e-10       1.978955061257e-14      -1.984941464176e-14       0.000000000000e+00       4.676234566594e-11       5.471643435960e-12      -9.238892023344e-15 
   54       2.114994870823e-10       2.098151018040e-14      -5.204351173616e-14       0.000000000000e+00       4.486052908180e-11       5.266301883050e-12      -9.543692232350e-15 
   55       2.144781499871e-10       2.221395867640e-14      -8.611815729619e-14       0.000000000000e+00       4.305367529235e-11       5.071062022945e-12      -9.879043454053e-15 
   56       2.174901592564e-10       2.348688010188e-14      -1.220785664920e-13       0.000000000000e+00       4.133963123256e-11       4.885873781088e-12      -1.023134564792e-14 
   57       2.205363165513e-10       2.480021711162e-14      -1.599276774170e-13       0.000000000000e+00       3.971742617698e-11       4.710680126785e-12      -1.058437412354e-14 
   58       2.236161116164e-10       2.615385619780e-14      -1.996655465078e-13       0.000000000000e+00       3.818335056459e-11       4.545129239182e-12      -1.091949843872e-14 
   59       2.267276261949e-10       2.754762636664e-14      -2.412893032911e-13       0.000000000000e+00       3.673078692719e-11       4.388556147133e-12      -1.121557678436e-14 
   60       2.298674379438e-10       2.898129781513e-14      -2.847931051305e-13       0.000000000000e+00       3.535004081778e-11       4.239964369068e-12      -1.144885036936e-14 
   61       2.330320786800e-10       3.045452984053e-14      -3.301689434288e-13       0.000000000000e+00       3.403102916207e-11       4.098298436543e-12      -1.159852282353e-14 
   62       2.362230089810e-10       3.196670389966e-14      -3.774093760750e-13       0.000000000000e+00       3.277243294444e-11       3.963374482518e-12      -1.166520078884e-14 
   63       2.394425947638e-10       3.351705055918e-14      -4.265053308129e-13       0.000000000000e+00       3.157430826956e-11       3.835126903837e-12      -1.165642393828e-14 
   64       2.426926056455e-10       3.510469408022e-14      -4.774452900306e-13       0.000000000000e+00       3.043533337036e-11       3.713326959793e-12      -1.158141849308e-14 
   65       2.459741681762e-10       3.672864948418e-14      -5.302152725235e-13       0.000000000000e+00       2.935273020019e-11       3.597573641509e-12      -1.145117198891e-14 
   66       2.492877190715e-10       3.838781961869e-14      -5.847988152571e-13       0.000000000000e+00       2.832218602511e-11       3.487284541328e-12      -1.127850804207e-14 
   67       2.526329584464e-10       4.008099222344e-14      -6.411769551294e-13       0.000000000000e+00       2.733777501614e-11       3.381686722198e-12      -1.107816111574e-14 
   68       2.560093921799e-10       4.180694850855e-14      -6.993282075962e-13       0.000000000000e+00       2.639353845080e-11       3.280019623747e-12      -1.086423153607e-14 
   69       2.594181911644e-10       4.356482099627e-14      -7.592285382805e-13       0.000000000000e+00       2.548877239436e-11       3.182211932731e-12      -1.064178459626e-14 
   70       2.628606265065e-10       4.535380324958e-14      -8.208513528216e-13       0.000000000000e+00       2.462367550977e-11       3.088326091891e-12      -1.041367570190e-14 
   71       2.663374825960e-10       4.717304469454e-14      -8.841674815153e-13       0.000000000000e+00       2.379774990449e-11       2.998354757182e-12      -1.018302713313e-14 
   72       2.698490254065e-10       4.902165053814e-14      -9.491451609967e-13       0.000000000000e+00       2.300976514241e-11       2.912217090088e-12      -9.953235809605e-15 
   73       2.733949707959e-10       5.089868168617e-14      -1.015750015923e-12       0.000000000000e+00       2.225772225578e-11       2.829755049945e-12      -9.727981055376e-15 
   74       2.769744528065e-10       5.280315466108e-14      -1.083945040654e-12       0.000000000000e+00       2.153881775711e-11       2.750729686258e-12      -9.511232363867e-15 
   75       2.805859919657e-10       5.473404151984e-14      -1.153690580938e-12       0.000000000000e+00       2.084940765111e-11       2.674817431021e-12      -9.307257162789e-15 
   76       2.842281504968e-10       5.669022435659e-14      -1.224945860988e-12       0.000000000000e+00       2.018591051469e-11       2.601694341913e-12      -9.119857732818e-15 
   77       2.879017059653e-10       5.867034941371e-14      -1.297673926698e-12       0.000000000000e+00       1.954778641164e-11       2.531314763219e-12      -8.949904150332e-15 
   78       2.916078182574e-10       6.067294609440e-14      -1.371837574753e-12       0.000000000000e+00       1.893503833813e-11       2.463676980052e-12      -8.797363482056e-15 
   79       2.953473605041e-10       6.269646902072e-14      -1.447397900363e-12       0.000000000000e+00       1.834730488474e-11       2.398737902117e-12      -8.662022808915e-15 
   80       2.991209014672e-10       6.473929702023e-14      -1.524314310630e-12       0.000000000000e+00       1.778384350469e-11       2.336411159536e-12      -8.543481184134e-15 
   81       3.029286879251e-10       6.679973211250e-14      -1.602544537922e-12       0.000000000000e+00       1.724351378213e-11       2.276565198666e-12      -8.441141591350e-15 
   82       3.067706270591e-10       6.887599849578e-14      -1.682044653247e-12       0.000000000000e+00       1.672476070042e-11       2.219021377929e-12      -8.354202902715e-15 
   83       3.106462688396e-10       7.096624153353e-14      -1.762769079620e-12       0.000000000000e+00       1.622559791037e-11       2.163552063628e-12      -8.281651837003e-15 
   84       3.145551016044e-10       7.306858780371e-14      -1.844669990954e-12       0.000000000000e+00       1.574408951467e-11       2.109935628609e-12      -8.222223491958e-15 
   85       3.184975336795e-10       7.518133890446e-14      -1.927695364913e-12       0.000000000000e+00       1.527992383981e-11       2.058136095217e-12      -8.174293039258e-15 
   86       3.224740429526e-10       7.730280806862e-14      -2.011790630276e-12       0.000000000000e+00       1.483307109847e-11       2.008149920587e-12      -8.135951246979e-15 
   87       3.264848659810e-10       7.943126197037e-14      -2.096899255727e-12       0.000000000000e+00       1.440329984000e-11       1.959950807824e-12      -8.105025865235e-15 
   88       3.305299856415e-10       8.156492073802e-14      -2.182962752899e-12       0.000000000000e+00       1.399016859712e-11       1.913488758181e-12      -8.079073056124e-15 
   89       3.346091187796e-10       8.370195796688e-14      -2.269920679417e-12       0.000000000000e+00       1.359301753262e-11       1.868689123224e-12      -8.055368823668e-15 
   90       3.387217038601e-10       8.584050073214e-14      -2.357710641945e-12       0.000000000000e+00       1.321096008607e-11       1.825451657014e-12      -8.030900443760e-15 
   91       3.428668886160e-10       8.797862960166e-14      -2.446268299227e-12       0.000000000000e+00       1.284287462047e-11       1.783649568272e-12      -8.002357894098e-15 
   92       3.470435176990e-10       9.011437864890e-14      -2.535527365137e-12       0.000000000000e+00       1.248739606898e-11       1.743128572558e-12      -7.966125284135e-15 
   93       3.512504801680e-10       9.224576841065e-14      -2.625420819343e-12       0.000000000000e+00       1.214323918703e-11       1.703745269875e-12      -7.919135688456e-15 
   94       3.554878385630e-10       9.437091040285e-14      -2.715884740992e-12       0.000000000000e+00       1.181024206572e-11       1.665490938803e-12      -7.861601329558e-15 
   95       3.597558476003e-10       9.648791842087e-14      -2.806855059926e-12       0.000000000000e+00       1.148846484877e-11       1.628384695207e-12      -7.794680080213e-15 
   96       3.640546021521e-10       9.859487745403e-14      -2.898266419790e-12       0.000000000000e+00       1.117786836064e-11       1.592435423219e-12      -7.719651884811e-15 
   97       3.683840298356e-10       1.006898441506e-13      -2.990052197653e-12       0.000000000000e+00       1.087831030515e-11       1.557641367226e-12      -7.637922041099e-15 
   98       3.727438836030e-10       1.027708472831e-13      -3.082144523630e-12       0.000000000000e+00       1.058954146403e-11       1.523989723851e-12      -7.551024481921e-15 
   99       3.771337343299e-10       1.048358882130e-13      -3.174474300505e-12       0.000000000000e+00       1.031120189556e-11       1.491456233945e-12      -7.460625056960e-15 
  100       3.815529634049e-10       1.068829413562e-13      -3.266971223350e-12       0.000000000000e+00       1.004281713307e-11       1.460004774574e-12      -7.368524814472e-15 
  101       3.860007553188e-10       1.089099546479e-13      -3.359563799146e-12       0.000000000000e+00       9.783794383639e-12       1.429586951003e-12      -7.276663283032e-15 
  102       3.904760902537e-10       1.109148500076e-13      -3.452179366410e-12       0.000000000000e+00       9.533418726567e-12       1.400141688685e-12      -7.187121753270e-15 
  103       3.949777366726e-10       1.128955238045e-13      -3.544744114809e-12       0.000000000000e+00       9.290849312037e-12       1.371594825246e-12      -7.102126559611e-15 
  104       3.995045058908e-10       1.148498983486e-13      -3.637183658628e-12       0.000000000000e+00       9.055309603700e-12       1.343876033154e-12      -7.023564783022e-15 
  105       4.040560709187e-10       1.167760832865e-13      -3.729424803125e-12       0.000000000000e+00       8.826695562274e-12       1.316973070006e-12      -6.951449783629e-15 
  106       4.086322449325e-10       1.186722369763e-13      -3.821394054473e-12       0.000000000000e+00       8.605042914231e-12       1.290884130123e-12      -6.885253537051e-15 
  107       4.132327246912e-10       1.205365184217e-13      -3.913017112626e-12       0.000000000000e+00       8.390338795317e-12       1.265600953351e-12      -6.824373651993e-15 
