# dimensionless total lensed [l(l+1)/2pi] C_l's
# for l=2 to 2500, i.e. number of multipoles equal to 2499
#
# -> if you prefer output in CAMB/HealPix/LensPix units/order, set 'format' to 'camb' in input file
# -> if you don't want to see such a header, set 'headers' to 'no' in input file
# -> for CMB lensing (phi), these are C_l^phi-phi for the lensing potential.
#    Remember the conversion factors:
#    C_l^dd (deflection) = l(l+1) C_l^phi-phi
#    C_l^gg (shear/convergence) = 1/4 (l(l+1))^2 C_l^phi-phi
#
# 1:l     2:TT                     3:EE                     4:TE                     5:BB                     6:phiphi                 7:TPhi                   8:Ephi               
    2       1.513664003012e-10       4.794193064780e-15       3.799582065933e-13       2.253233375642e-19       8.309228092125e-09       5.059271106993e-10      -2.012683148315e-12 
    3       1.417628428354e-10       6.054668972631e-15       4.281333232436e-13       4.507466125734e-19       5.130008677302e-09       3.573185302213e-10      -1.512239650364e-12 
    4       1.331039164505e-10       5.149032651280e-15       3.998178614421e-13       7.514643390617e-19       3.573565973621e-09       2.695893571793e-10      -9.768076850775e-13 
    5       1.266676007649e-10       3.373382169775e-15       3.391791431037e-13       1.127603989351e-18       2.668864892241e-09       2.123210717617e-10      -5.310368296930e-13 
    6       1.222180332454e-10       1.856593922461e-15       2.715916143567e-13       1.579320077330e-18       2.084786375101e-09       1.723416898886e-10      -2.072611284159e-13 
    7       1.192680834326e-10       9.992236056592e-16       2.117265934633e-13       2.106791163707e-18       1.680721432552e-09       1.430978563427e-10      -5.087602492065e-15 
    8       1.174592672687e-10       6.511401038990e-16       1.659107819687e-13       2.710216474686e-18       1.387272694995e-09       1.209825183510e-10       9.391191169763e-14 
    9       1.164930878621e-10       5.242423969182e-16       1.354211371147e-13       3.389812236978e-18       1.166771956689e-09       1.038448732654e-10       1.170810791791e-13 
   10       1.161219294695e-10       4.430327297734e-16       1.186566113628e-13       4.145807839119e-18       9.966907456944e-10       9.028476902612e-11       9.396030335673e-14 
   11       1.162496225554e-10       3.698735929986e-16       1.125853126574e-13       4.978441932238e-18       8.432958852726e-10       7.968997811387e-11       5.145275457937e-14 
   12       1.167302505491e-10       3.230970557015e-16       1.137811712352e-13       5.887958582549e-18       7.367620202451e-10       7.044003293272e-11       8.505594456940e-15 
   13       1.174940714030e-10       3.112603512750e-16       1.192703671006e-13       6.874603583052e-18       6.493073841729e-10       6.289711350725e-11      -2.257420753366e-14 
   14       1.184682317103e-10       3.231378037787e-16       1.268692802564e-13       7.938621023408e-18       5.765445242074e-10       5.631053680057e-11      -3.808022347417e-14 
   15       1.196503147165e-10       3.467119489448e-16       1.351594916529e-13       9.080250205039e-18       5.152974435843e-10       5.077375196153e-11      -3.911814270243e-14 
   16       1.209806142128e-10       3.813874230492e-16       1.435368019041e-13       1.029972297370e-17       4.632239672951e-10       4.602378526249e-11      -3.059070912702e-14 
   17       1.224489733823e-10       4.337941512692e-16       1.519030320135e-13       1.159726152468e-17       4.185546652122e-10       4.189553975304e-11      -1.835761647007e-14 
   18       1.240072450472e-10       5.088683919658e-16       1.604986061705e-13       1.297307650842e-17       3.797861939713e-10       3.827300320399e-11      -7.624992530637e-15 
   19       1.256669789251e-10       6.063641945529e-16       1.695643063084e-13       1.442736691288e-17       3.463001633557e-10       3.511645966954e-11      -8.588776780564e-16 
   20       1.274070605464e-10       7.237359907028e-16       1.792803650123e-13       1.596031711602e-17       3.168088873409e-10       3.233203225379e-11       6.140694114767e-16 
   21       1.292336782319e-10       8.603794124257e-16       1.896002162323e-13       1.757209995597e-17       2.908491467054e-10       2.986833619673e-11      -2.208168478340e-15 
   22       1.311283173310e-10       1.015945354143e-15       2.003018974259e-13       1.926287348045e-17       2.677990438318e-10       2.764889499489e-11      -7.116122299687e-15 
   23       1.330890283937e-10       1.190200942082e-15       2.109459549352e-13       2.103278554518e-17       2.473417170254e-10       2.565104485535e-11      -1.224150656271e-14 
   24       1.350988095310e-10       1.382869219412e-15       2.209893838705e-13       2.288197050969e-17       2.290046326231e-10       2.384710817819e-11      -1.576017361280e-14 
   25       1.371685320100e-10       1.594495358963e-15       2.301613817789e-13       2.481055561191e-17       2.125720603474e-10       2.222955878814e-11      -1.704111142545e-14 
   26       1.392987708525e-10       1.826089804107e-15       2.382864186909e-13       2.681865698217e-17       1.977464358453e-10       2.077872795864e-11      -1.603217452490e-14 
   27       1.414753391006e-10       2.079709402889e-15       2.452968976106e-13       2.890638569011e-17       1.843497986412e-10       1.946629540837e-11      -1.354583132563e-14 
   28       1.436714097092e-10       2.357725657482e-15       2.511873577537e-13       3.107384503175e-17       1.721511049409e-10       1.825429464436e-11      -1.074029873028e-14 
   29       1.458971512703e-10       2.661584772523e-15       2.560232871368e-13       3.332114001202e-17       1.610879898917e-10       1.714157188999e-11      -8.251369480718e-15 
   30       1.481635747048e-10       2.992430109490e-15       2.599280385704e-13       3.564836966716e-17       1.510416112849e-10       1.612992370165e-11      -6.645695715014e-15 
   31       1.504706759984e-10       3.351334732833e-15       2.630267703250e-13       3.805562702456e-17       1.418069962239e-10       1.521156627312e-11      -6.414025569414e-15 
   32       1.528208480929e-10       3.739217148578e-15       2.652638225691e-13       4.054301051818e-17       1.333363783038e-10       1.437605259639e-11      -7.275752749736e-15 
   33       1.552076461156e-10       4.156879465238e-15       2.665157152084e-13       4.311061684432e-17       1.255697738968e-10       1.360397956579e-11      -8.597286923412e-15 
   34       1.576177986669e-10       4.605077072339e-15       2.666411734279e-13       4.575853948984e-17       1.183984113422e-10       1.287232049728e-11      -9.698970188923e-15 
   35       1.600557423963e-10       5.084716861608e-15       2.654979444293e-13       4.848687359184e-17       1.117855263079e-10       1.218301107853e-11      -1.034769288227e-14 
   36       1.625259056245e-10       5.596720201697e-15       2.629291537260e-13       5.129571308117e-17       1.056780155356e-10       1.154353752227e-11      -1.043000357740e-14 
   37       1.650277256390e-10       6.141953753710e-15       2.587912871225e-13       5.418514848660e-17       9.999633697373e-11       1.095823549900e-11      -9.880217066701e-15 
   38       1.675636651233e-10       6.721182682220e-15       2.530704656820e-13       5.715526306356e-17       9.472576461477e-11       1.042522278999e-11      -8.880148353579e-15 
   39       1.701326143564e-10       7.335095044686e-15       2.458052809343e-13       6.020613563880e-17       8.984953270686e-11       9.937897248976e-12      -7.730211254170e-15 
   40       1.727269073283e-10       7.984308579341e-15       2.370574653015e-13       6.333784179427e-17       8.532107873282e-11       9.485305820363e-12      -6.801784393195e-15 
   41       1.753366522569e-10       8.669413421571e-15       2.268889606341e-13       6.655045010522e-17       8.108025186654e-11       9.055446556084e-12      -6.434837958189e-15 
   42       1.779659922238e-10       9.391127744344e-15       2.152807769009e-13       6.984400910847e-17       7.711453105183e-11       8.647315932039e-12      -6.579846026587e-15 
   43       1.806210361276e-10       1.015018524515e-14       2.021900780522e-13       7.321855628311e-17       7.341336163098e-11       8.262189264989e-12      -7.046927466888e-15 
   44       1.833050242269e-10       1.094729111167e-14       1.875719686158e-13       7.667412140977e-17       6.994978643824e-11       7.900204401524e-12      -7.599918032701e-15 
   45       1.860190287578e-10       1.178308420884e-14       1.713799983208e-13       8.021072202769e-17       6.669006455659e-11       7.560639936838e-12      -8.012401216572e-15 
   46       1.887650417998e-10       1.265801310495e-14       1.535685042124e-13       8.382834855316e-17       6.362903305276e-11       7.243088508685e-12      -8.262426592953e-15 
   47       1.915432791063e-10       1.357242085614e-14       1.340905007305e-13       8.752697444711e-17       6.076309636932e-11       6.946461424749e-12      -8.391203961698e-15 
   48       1.943509997110e-10       1.452657508330e-14       1.128967364979e-13       9.130655981824e-17       5.807956113519e-11       6.668561615036e-12      -8.449856652008e-15 
   49       1.971822518414e-10       1.552066461651e-14       8.993546409714e-14       9.516705101459e-17       5.555595984303e-11       6.406003893990e-12      -8.499988757762e-15 
   50       2.000306310829e-10       1.655482735231e-14       6.515856362918e-14       9.910838021739e-17       5.316681005787e-11       6.155198861694e-12      -8.600242699387e-15 
   51       2.028990269644e-10       1.762925052496e-14       3.854240704513e-14       1.031304650402e-16       5.090762405828e-11       5.915804447715e-12      -8.760354343276e-15 
   52       2.057920827693e-10       1.874409185236e-14       1.007225924705e-14       1.072332081151e-16       4.877624727578e-11       5.688073418006e-12      -8.975607164945e-15 
   53       2.087133048436e-10       1.989944886005e-14      -2.026351356246e-14       1.114164966819e-16       4.676567369538e-11       5.471842640002e-12      -9.239662069137e-15 
   54       2.116649502629e-10       2.109535699444e-14      -5.247337510169e-14       1.156802021802e-16       4.486371944039e-11       5.266503398345e-12      -9.544465346407e-15 
   55       2.146483314721e-10       2.233180209375e-14      -8.656314922073e-14       1.200241895457e-16       4.305673452080e-11       5.071262455657e-12      -9.879808670619e-15 
   56       2.176650761741e-10       2.360876575090e-14      -1.225379223427e-13       1.244483487393e-16       4.134256564780e-11       4.886069183778e-12      -1.023209195381e-14 
   57       2.207159836638e-10       2.492618791499e-14      -1.604004931588e-13       1.289525703355e-16       3.972024191870e-11       4.710866757491e-12      -1.058509193665e-14 
   58       2.238005412797e-10       2.628395222248e-14      -2.001507705932e-13       1.335367364741e-16       3.818605338707e-11       4.545303631637e-12      -1.092017991896e-14 
   59       2.269168283163e-10       2.768188466991e-14      -2.417857283622e-13       1.382007208299e-16       3.673338197850e-11       4.388715184571e-12      -1.121621615947e-14 
   60       2.300614199363e-10       2.911975228652e-14      -2.852993595325e-13       1.429443885827e-16       3.535253240639e-11       4.240105361614e-12      -1.144944427554e-14 
   61       2.332308457329e-10       3.059721123973e-14      -3.306834923110e-13       1.477676136565e-16       3.403342076175e-11       4.098419214199e-12      -1.159907022667e-14 
   62       2.364265653690e-10       3.211364054273e-14      -3.779305541936e-13       1.526703350278e-16       3.277472800486e-11       3.963473530925e-12      -1.166570150390e-14 
   63       2.396509443469e-10       3.366826849553e-14      -4.270313504466e-13       1.576525130607e-16       3.157651038058e-11       3.835203473266e-12      -1.165687826077e-14 
   64       2.429057520762e-10       3.526021708462e-14      -4.779742398680e-13       1.627141138592e-16       3.043744618675e-11       3.713381166872e-12      -1.158182723806e-14 
   65       2.461921151142e-10       3.688849905125e-14      -5.307451166729e-13       1.678551097857e-16       2.935475736187e-11       3.597606574917e-12      -1.145153653102e-14 
   66       2.495104704058e-10       3.855201495955e-14      -5.853273923780e-13       1.730754799784e-16       2.832413107268e-11       3.487298371460e-12      -1.127883035673e-14 
   67       2.528605185237e-10       4.024955026474e-14      -6.417019776867e-13       1.783752108687e-16       2.733964130176e-11       3.381684814790e-12      -1.107844382130e-14 
   68       2.562417646741e-10       4.197988397678e-14      -6.998472562558e-13       1.837543043954e-16       2.639532911929e-11       3.280006389236e-12      -1.086447787881e-14 
   69       2.596553735322e-10       4.374214677239e-14      -7.597390403160e-13       1.892128034195e-16       2.549049060154e-11       3.182191811725e-12      -1.064199824806e-14 
   70       2.631026079703e-10       4.553553051252e-14      -8.213505734749e-13       1.947507724128e-16       2.462532444352e-11       3.088303235803e-12      -1.041386070897e-14 
   71       2.665842433880e-10       4.735918299097e-14      -8.846525200453e-13       2.003682909191e-16       2.379933273260e-11       2.998332958779e-12      -1.018318791931e-14 
   72       2.701005359844e-10       4.921220785670e-14      -9.496129467222e-13       2.060654542693e-16       2.301128495771e-11       2.912199711153e-12      -9.953377179118e-15 
   73       2.736511910307e-10       5.109366453609e-14      -1.016197304260e-12       2.118423742956e-16       2.225918201861e-11       2.829744946044e-12      -9.728108195275e-15 
   74       2.772353311426e-10       5.300256815530e-14      -1.084368409151e-12       2.176991800459e-16       2.154022023500e-11       2.750729128614e-12      -9.511350845973e-15 
   75       2.808514645529e-10       5.493788946252e-14      -1.154086425300e-12       2.236360184990e-16       2.085075535579e-11       2.674828025498e-12      -9.307372945237e-15 
   76       2.844981421028e-10       5.689850937998e-14      -1.225310396605e-12       2.296530456312e-16       2.018720570491e-11       2.601717014277e-12      -9.119976891228e-15 
   77       2.881761366630e-10       5.888307326384e-14      -1.298003207833e-12       2.357503961579e-16       1.954903131328e-11       2.531349963577e-12      -8.950031741915e-15 
   78       2.918866053448e-10       6.089010980322e-14      -1.372127499299e-12       2.419282095471e-16       1.893623518191e-11       2.463724703011e-12      -8.797503117167e-15 
   79       2.956304187183e-10       6.291807304108e-14      -1.447644209481e-12       2.481866396855e-16       1.834845587755e-11       2.398797639874e-12      -8.662176472642e-15 
   80       2.994081432082e-10       6.496534136615e-14      -1.524512588496e-12       2.545258553950e-16       1.778495079974e-11       2.336481853489e-12      -8.543649051938e-15 
   81       3.032200234884e-10       6.703021650488e-14      -1.602690211585e-12       2.609460409500e-16       1.724457944765e-11       2.276645189558e-12      -8.441321838731e-15 
   82       3.070659648780e-10       6.911092251338e-14      -1.682132992589e-12       2.674473965936e-16       1.672578668715e-11       2.219108354510e-12      -8.354391508924e-15 
   83       3.109455157357e-10       7.120560476937e-14      -1.762795197430e-12       2.740301390544e-16       1.622658601770e-11       2.163643009853e-12      -8.281842382793e-15 
   84       3.148581630153e-10       7.331238991674e-14      -1.844628842070e-12       2.806944989609e-16       1.574504139226e-11       2.110026973919e-12      -8.222407661039e-15 
   85       3.188043137892e-10       7.542957932550e-14      -1.927581742178e-12       2.874407114596e-16       1.528084110550e-11       2.058224516020e-12      -8.174463378004e-15 
   86       3.227844449194e-10       7.755548600429e-14      -2.011599163350e-12       2.942690249816e-16       1.483395535684e-11       2.008232596296e-12      -8.136102031066e-15 
   87       3.267987922059e-10       7.968837651537e-14      -2.096624410972e-12       3.011797046647e-16       1.440415266521e-11       1.960025483867e-12      -8.105153295767e-15 
   88       3.308473380447e-10       8.182647099105e-14      -2.182598833355e-12       3.081730328180e-16       1.399099151503e-11       1.913553810970e-12      -8.079175461729e-15 
   89       3.349297990866e-10       8.396794314994e-14      -2.269461824870e-12       3.152493093861e-16       1.359381200221e-11       1.868743627093e-12      -8.055446868552e-15 
   90       3.390456138953e-10       8.611092031342e-14      -2.357150829080e-12       3.224088524143e-16       1.321172748017e-11       1.825495453119e-12      -8.030957341732e-15 
   91       3.431939306060e-10       8.825348342192e-14      -2.445601341881e-12       3.296519985127e-16       1.284361620580e-11       1.783683335458e-12      -8.002399628559e-15 
   92       3.473735945839e-10       9.039366705129e-14      -2.534746914629e-12       3.369791033211e-16       1.248811298552e-11       1.743153900190e-12      -7.966160834030e-15 
   93       3.515834941156e-10       9.252949263350e-14      -2.624520370821e-12       3.443905523829e-16       1.214393245437e-11       1.703764523049e-12      -7.919176499627e-15 
   94       3.558236837649e-10       9.465907379841e-14      -2.714857658619e-12       3.518867946295e-16       1.181091267660e-11       1.665506460735e-12      -7.861658379501e-15 
   95       3.600944079378e-10       9.678052697932e-14      -2.805694586237e-12       3.594683148141e-16       1.148911378732e-11       1.628398575929e-12      -7.794762996824e-15 
   96       3.643957505757e-10       9.889194008625e-14      -2.896965679556e-12       3.671356241509e-16       1.117849659382e-11       1.592449468067e-12      -7.719768789031e-15 
   97       3.687276277286e-10       1.009913729780e-13      -2.988604201916e-12       3.748892609219e-16       1.087891877383e-11       1.557657064417e-12      -7.638079385089e-15 
   98       3.730897801280e-10       1.030768579344e-13      -3.080542173911e-12       3.827297910849e-16       1.059013107381e-11       1.524008211152e-12      -7.551226882760e-15 
   99       3.774817657604e-10       1.051464001282e-13      -3.172710393178e-12       3.906578088806e-16       1.031177350720e-11       1.491478264428e-12      -7.460875125866e-15 
  100       3.819029524399e-10       1.071979780978e-13      -3.265038454194e-12       3.986739374403e-16       1.004337155273e-11       1.460030681454e-12      -7.368822981553e-15 
  101       3.863525103817e-10       1.092295442187e-13      -3.357454768068e-12       4.067788293932e-16       9.784332352655e-12       1.429616611568e-12      -7.277007617557e-15 
  102       3.908294047747e-10       1.112390251759e-13      -3.449886582330e-12       4.149731674740e-16       9.533940911059e-12       1.400174487314e-12      -7.187507779468e-15 
  103       3.953323883553e-10       1.132243224365e-13      -3.542260000731e-12       4.232576651304e-16       9.291356292115e-12       1.371629615514e-12      -7.102547067997e-15 
  104       3.998602587367e-10       1.151833638942e-13      -3.634500565973e-12       4.316330437189e-16       9.055801880233e-12       1.343911222931e-12      -7.024010263774e-15 
  105       4.044126859851e-10       1.171142657338e-13      -3.726535054954e-12       4.400999592746e-16       8.827173619622e-12       1.317007096432e-12      -6.951910831479e-15 
  106       4.089894835120e-10       1.190151934146e-13      -3.818289964065e-12       4.486590669361e-16       8.605507234023e-12       1.290915595920e-12      -6.885721543886e-15 
  107       4.135903488367e-10       1.208843134719e-13      -3.909690993568e-12       4.573110438189e-16       8.390789852949e-12       1.265628644375e-12      -6.824840899083e-15 
