# dimensionless total lensed [l(l+1)/2pi] C_l's
# for l=2 to 2500, i.e. number of multipoles equal to 2499
#
# -> if you prefer output in CAMB/HealPix/LensPix units/order, set 'format' to 'camb' in input file
# -> if you don't want to see such a header, set 'headers' to 'no' in input file
# -> for CMB lensing (phi), these are C_l^phi-phi for the lensing potential.
#    Remember the conversion factors:
#    C_l^dd (deflection) = l(l+1) C_l^phi-phi
#    C_l^gg (shear/convergence) = 1/4 (l(l+1))^2 C_l^phi-phi
#
# 1:l     2:TT                     3:EE                     4:TE                     5:BB                     6:phiphi                 7:TPhi                   8:Ephi               
    2       1.513665296393e-10       4.794233981346e-15       3.799624987832e-13       2.253251390028e-19       8.309054646919e-09       5.059188470306e-10      -2.012687933956e-12 
    3       1.417638220062e-10       6.054713010552e-15       4.281411281736e-13       4.507502011528e-19       5.129879742665e-09       3.573116892099e-10      -1.512240009832e-12 
    4       1.331047800156e-10       5.149049203128e-15       3.998226562971e-13       7.514702889007e-19       3.573465076886e-09       2.695838250388e-10      -9.768061598134e-13 
    5       1.266680106381e-10       3.373382457843e-15       3.391802677236e-13       1.127612857275e-18       2.668783040099e-09       2.123164349748e-10      -5.310361050214e-13 
    6       1.222180782193e-10       1.856588153386e-15       2.715910993791e-13       1.579332400004e-18       2.084717970903e-09       1.723376510785e-10      -2.072615810300e-13 
    7       1.192680964959e-10       9.992146907561e-16       2.117252650448e-13       2.106807455640e-18       1.680663385872e-09       1.430942292016e-10      -5.088601440320e-15 
    8       1.174592759132e-10       6.511300447826e-16       1.659089711226e-13       2.710237227199e-18       1.387222627499e-09       1.209791785208e-10       9.391101089986e-14 
    9       1.164930479687e-10       5.242324542704e-16       1.354191388841e-13       3.389837918164e-18       1.166727731179e-09       1.038417490692e-10       1.170806177415e-13 
   10       1.161219612665e-10       4.430230348988e-16       1.186542374605e-13       4.145838894801e-18       9.966511323602e-10       9.028183420731e-11       9.396033095081e-14 
   11       1.162496625169e-10       3.698635814508e-16       1.125824899385e-13       4.978478787870e-18       8.432597755647e-10       7.968717588572e-11       5.145312628700e-14 
   12       1.167302912513e-10       3.230856350838e-16       1.137778711392e-13       5.888001645972e-18       7.367293184604e-10       7.043744485521e-11       8.506135200499e-15 
   13       1.174941044419e-10       3.112463874099e-16       1.192665488666e-13       6.874653247974e-18       6.492775056269e-10       6.289475284426e-11      -2.257367933478e-14 
   14       1.184682011722e-10       3.231202196223e-16       1.268648962299e-13       7.938677673446e-18       5.765172324001e-10       5.630832170314e-11      -3.807978745986e-14 
   15       1.196501898979e-10       3.466899839291e-16       1.351544880068e-13       9.080314218131e-18       5.152723627922e-10       5.077167441902e-11      -3.911782577506e-14 
   16       1.209804720564e-10       3.813602186916e-16       1.435313228404e-13       1.029979472669e-17       4.632008097013e-10       4.602188547068e-11      -3.059045345394e-14 
   17       1.224487502627e-10       4.337601343420e-16       1.518970560806e-13       1.159734139785e-17       4.185332625117e-10       4.189382133755e-11      -1.835735328369e-14 
   18       1.240070040308e-10       5.088266553366e-16       1.604922150780e-13       1.297316488986e-17       3.797663743277e-10       3.827140715175e-11      -7.624641200531e-15 
   19       1.256667494376e-10       6.063134539086e-16       1.695575296341e-13       1.442746420191e-17       3.462817534581e-10       3.511495943745e-11      -8.584158653555e-16 
   20       1.274067600706e-10       7.236741608925e-16       1.792731022714e-13       1.596042372708e-17       3.167917561172e-10       3.233066484908e-11       6.145781396811e-16 
   21       1.292332794073e-10       8.603046828695e-16       1.895924479886e-13       1.757221632023e-17       2.908331812999e-10       2.986711159722e-11      -2.207669721277e-15 
   22       1.311278952915e-10       1.015856543321e-15       2.002937543605e-13       1.926300004806e-17       2.677841574842e-10       2.764776921553e-11      -7.115649846354e-15 
   23       1.330886256068e-10       1.190096808111e-15       2.109375822139e-13       2.103292278501e-17       2.473278234877e-10       2.564997812320e-11      -1.224106148206e-14 
   24       1.350983944660e-10       1.382748178700e-15       2.209808860763e-13       2.288211890966e-17       2.289916485789e-10       2.384608906702e-11      -1.575975379526e-14 
   25       1.371680729843e-10       1.594355390934e-15       2.301528077408e-13       2.481071567670e-17       2.125599055773e-10       2.222860366285e-11      -1.704073710391e-14 
   26       1.392982600505e-10       1.825928508218e-15       2.382777667966e-13       2.681882923162e-17       1.977350408376e-10       2.077787485650e-11      -1.603188773345e-14 
   27       1.414747781642e-10       2.079524655035e-15       2.452882111071e-13       2.890657065547e-17       1.843391006046e-10       1.946555537617e-11      -1.354563601029e-14 
   28       1.436708044824e-10       2.357515761947e-15       2.511787428829e-13       3.107404325245e-17       1.721410507368e-10       1.825363748097e-11      -1.074014469137e-14 
   29       1.458965041743e-10       2.661347843303e-15       2.560148143003e-13       3.332135203063e-17       1.610785272049e-10       1.714095673235e-11      -8.251200140883e-15 
   30       1.481628811228e-10       2.992163817872e-15       2.599196982712e-13       3.564859602505e-17       1.510326909772e-10       1.612930936564e-11      -6.645465857780e-15 
   31       1.504699238605e-10       3.351036375193e-15       2.630184845526e-13       3.805586825785e-17       1.417985768699e-10       1.521091824259e-11      -6.413708034590e-15 
   32       1.528200230373e-10       3.738884314445e-15       2.652555730142e-13       4.054326715394e-17       1.333284211611e-10       1.437536755134e-11      -7.275349609671e-15 
   33       1.552067331426e-10       4.156510342838e-15       2.665076007834e-13       4.311088939593e-17       1.255622447919e-10       1.360330008938e-11      -8.596838879116e-15 
   34       1.576167838159e-10       4.604670408543e-15       2.666334014090e-13       4.575882845288e-17       1.183912831838e-10       1.287172892620e-11      -9.698550611815e-15 
   35       1.600546194136e-10       5.084271219563e-15       2.654906882627e-13       4.848717944410e-17       1.117787735155e-10       1.218256390624e-11      -1.034735037354e-14 
   36       1.625246796111e-10       5.596233669381e-15       2.629224964019e-13       5.129603627944e-17       1.056716142413e-10       1.154323764064e-11      -1.042973719959e-14 
   37       1.650264122170e-10       6.141423926613e-15       2.587852283261e-13       5.418548946486e-17       9.999026635476e-11       1.095803319428e-11      -9.879977524076e-15 
   38       1.675622781535e-10       6.720606980747e-15       2.530650328461e-13       5.715562224077e-17       9.472000395683e-11       1.042506478524e-11      -8.879884569032e-15 
   39       1.701311612926e-10       7.334470802462e-15       2.458005708370e-13       6.020651341999e-17       8.984406162349e-11       9.937743366026e-12      -7.729886375768e-15 
   40       1.727253874876e-10       7.983633041859e-15       2.370536590764e-13       6.333823856900e-17       8.531587870381e-11       9.485133150007e-12      -6.801380016081e-15 
   41       1.753350576242e-10       8.668683941309e-15       2.268863099751e-13       6.655086624970e-17       8.107530698705e-11       9.055250174737e-12      -6.434354796899e-15 
   42       1.779643171258e-10       9.390342642116e-15       2.152794902822e-13       6.984444500028e-17       7.710982577264e-11       8.647097208356e-12      -6.579291855944e-15 
   43       1.806192807308e-10       1.014934422222e-14       2.021902759856e-13       7.321901230729e-17       7.340888076059e-11       8.261953024959e-12      -7.046314134992e-15 
   44       1.833031957021e-10       1.094639549748e-14       1.875736647827e-13       7.667459796177e-17       6.994551606083e-11       7.899959520672e-12      -7.599261978003e-15 
   45       1.860171404066e-10       1.178213687345e-14       1.713831058703e-13       8.021121951845e-17       6.668599245297e-11       7.560398653163e-12      -8.011722447381e-15 
   46       1.887631051865e-10       1.265701721421e-14       1.535729291058e-13       8.382886742139e-17       6.362514727760e-11       7.242861366452e-12      -8.261742450753e-15 
   47       1.915413012069e-10       1.357137946112e-14       1.340961722051e-13       8.752751516685e-17       6.075938524737e-11       6.946255335609e-12      -8.390526581145e-15 
   48       1.943489819319e-10       1.452549102213e-14       1.129036139394e-13       9.130712290486e-17       5.807601382156e-11       6.668379074543e-12      -8.449191781883e-15 
   49       1.971801889835e-10       1.551954040960e-14       8.994354433284e-14       9.516763703113e-17       5.555256692485e-11       6.405842154576e-12      -8.499334515490e-15 
   50       2.000285120768e-10       1.655366511849e-14       6.516788113287e-14       9.910898977904e-17       5.316356372851e-11       6.155050432546e-12      -8.599590448808e-15 
   51       2.028968416095e-10       1.762805198209e-14       3.855300963731e-14       1.031310988121e-16       5.090451677604e-11       5.915662100997e-12      -8.759696775737e-15 
   52       2.057898240045e-10       1.874285824503e-14       1.008420237437e-14       1.072338668154e-16       4.877327159836e-11       5.687931836659e-12      -8.974941017497e-15 
   53       2.087109693663e-10       1.989818085668e-14      -2.025016555656e-14       1.114171810872e-16       4.676282256639e-11       5.471698822446e-12      -9.238988859693e-15 
   54       2.116625391793e-10       2.109405457911e-14      -5.245854763975e-14       1.156809131312e-16       4.486098649517e-11       5.266357084132e-12      -9.543792145507e-15 
   55       2.146458499961e-10       2.233046463487e-14      -8.654676046560e-14       1.200249279456e-16       4.305411419246e-11       5.071115980154e-12      -9.879147513761e-15 
   56       2.176625301226e-10       2.360739266420e-14      -1.225199005139e-13       1.244491155287e-16       4.134005257112e-11       4.885925405885e-12      -1.023145469614e-14 
   57       2.207133784150e-10       2.492477887053e-14      -1.603807829527e-13       1.289533664852e-16       3.971783089568e-11       4.710728472313e-12      -1.058448859719e-14 
   58       2.237978816378e-10       2.628250718431e-14      -2.001293356395e-13       1.335375629848e-16       3.818373956711e-11       4.545173531052e-12      -1.091961830434e-14 
   59       2.269141183695e-10       2.768040393749e-14      -2.417625537837e-13       1.382015787318e-16       3.673116104941e-11       4.388595815679e-12      -1.121570146984e-14 
   60       2.300586629082e-10       2.911823653795e-14      -2.852744546091e-13       1.429452789350e-16       3.535040079624e-11       4.239999083069e-12      -1.144897869270e-14 
   61       2.332280437282e-10       3.059566148683e-14      -3.306568878358e-13       1.477685375404e-16       3.403137563002e-11       4.098328117737e-12      -1.159865306780e-14 
   62       2.364237187918e-10       3.211205779446e-14      -3.779022822784e-13       1.526712935181e-16       3.277276652156e-11       3.963399254118e-12      -1.166533126054e-14 
   63       2.396480515606e-10       3.366665365048e-14      -4.270014381048e-13       1.576535072136e-16       3.157462957607e-11       3.835147092774e-12      -1.165655314610e-14 
   64       2.429028091457e-10       3.525857090677e-14      -4.779427075958e-13       1.627151447066e-16       3.043564301287e-11       3.713343119124e-12      -1.158154518883e-14 
   65       2.461891155380e-10       3.688682214460e-14      -5.307119769623e-13       1.678561783281e-16       2.935302875682e-11       3.597586573650e-12      -1.145129521031e-14 
   66       2.495074048385e-10       3.855030774177e-14      -5.852926481622e-13       1.730765871784e-16       2.832247402978e-11       3.487295322096e-12      -1.127862715733e-14 
   67       2.528573744881e-10       4.024781293979e-14      -6.416656207178e-13       1.783763576443e-16       2.733805294200e-11       3.381696725666e-12      -1.107827586989e-14 
   68       2.562385273183e-10       4.197811656611e-14      -6.998092688025e-13       1.837554916183e-16       2.639380670995e-11       3.280030450393e-12      -1.086434203065e-14 
   69       2.596520297877e-10       4.374034933844e-14      -7.596994077537e-13       1.892140319354e-16       2.548903139165e-11       3.182225022876e-12      -1.064189104912e-14 
   70       2.630991479837e-10       4.553370322722e-14      -8.213092880789e-13       1.947520430436e-16       2.462392565205e-11       3.088342591248e-12      -1.041377838537e-14 
   71       2.665806609752e-10       4.735732614845e-14      -8.846095816099e-13       2.003696044596e-16       2.379799159347e-11       2.998375472636e-12      -1.018312637674e-14 
   72       2.700968291027e-10       4.921032188652e-14      -9.495683631990e-13       2.060668114838e-16       2.300999876717e-11       2.912242443798e-12      -9.953332002840e-15 
   73       2.736473622674e-10       5.109175001695e-14      -1.016151092415e-12       2.118437759139e-16       2.225794818490e-11       2.829785031766e-12      -9.728074650513e-15 
   74       2.772313882210e-10       5.300062582920e-14      -1.084320595240e-12       2.177006267600e-16       2.153903633046e-11       2.750763804482e-12      -9.511323878818e-15 
   75       2.808474208549e-10       5.493592024947e-14      -1.154037045764e-12       2.236375109587e-16       2.084961917121e-11       2.674854661440e-12      -9.307347184003e-15 
   76       2.844940157763e-10       5.689651434478e-14      -1.225259494896e-12       2.296545844523e-16       2.018611524737e-11       2.601733208725e-12      -9.119946891449e-15 
   77       2.881719451485e-10       5.888105342782e-14      -1.297950818788e-12       2.357519819691e-16       1.954798461717e-11       2.531353846957e-12      -8.949993012511e-15 
   78       2.918823636738e-10       6.088806608358e-14      -1.372073643714e-12       2.419298430044e-16       1.893523027680e-11       2.463715073674e-12      -8.797452509402e-15 
   79       2.956261391591e-10       6.291600623551e-14      -1.447588892317e-12       2.481883214761e-16       1.834749081311e-11       2.398774041511e-12      -8.662112343919e-15 
   80       2.994038348983e-10       6.496325213702e-14      -1.524455797024e-12       2.545275862410e-16       1.778402367169e-11       2.336444655087e-12      -8.543571435049e-15 
   81       3.032156920555e-10       6.702810536288e-14      -1.602631913467e-12       2.609478216120e-16       1.724368842501e-11       2.276595667887e-12      -8.441232616562e-15 
   82       3.070616120478e-10       6.910878980067e-14      -1.682073133902e-12       2.674492278748e-16       1.672493004049e-11       2.219048779138e-12      -8.354294594617e-15 
   83       3.109411389281e-10       7.120345064223e-14      -1.762733700624e-12       2.740320218048e-16       1.622576214860e-11       2.163576730692e-12      -8.281743905354e-15 
   84       3.148537556675e-10       7.331021437387e-14      -1.844565609967e-12       2.806964340740e-16       1.574424883218e-11       2.109958225340e-12      -8.222315490351e-15 
   85       3.187998680265e-10       7.542738238287e-14      -1.927516681358e-12       2.874426998464e-16       1.528007841453e-11       2.058157311098e-12      -8.174384530229e-15 
   86       3.227799522467e-10       7.755326774693e-14      -2.011532191266e-12       2.942710675637e-16       1.483322110796e-11       2.008170384029e-12      -8.136041850629e-15 
   87       3.267942434945e-10       7.968613710548e-14      -2.096555457296e-12       3.011818023745e-16       1.440344545943e-11       1.959971076709e-12      -8.105115266517e-15 
   88       3.308427235190e-10       8.182421067625e-14      -2.182527841363e-12       3.081751865990e-16       1.399030999710e-11       1.913509310088e-12      -8.079161012350e-15 
   89       3.349251083107e-10       8.396566227198e-14      -2.269388752870e-12       3.152515201934e-16       1.359315487700e-11       1.868710345357e-12      -8.055455172243e-15 
   90       3.390408357602e-10       8.610861931699e-14      -2.357075651885e-12       3.224111212146e-16       1.321109352955e-11       1.825473835809e-12      -8.030985110139e-15 
   91       3.431890533162e-10       8.825116286382e-14      -2.445524052317e-12       3.296543262848e-16       1.284300430628e-11       1.783672878700e-12      -8.002440899977e-15 
   92       3.473686056449e-10       9.039132760987e-14      -2.534667525092e-12       3.369814910559e-16       1.248752212631e-11       1.743153067117e-12      -7.966206755860e-15 
   93       3.515783808712e-10       9.252713511802e-14      -2.624438914032e-12       3.443930010706e-16       1.214336173192e-11       1.703770886592e-12      -7.919215845281e-15 
   94       3.558184356807e-10       9.465669915760e-14      -2.714774185784e-12       3.518893052039e-16       1.181036121251e-11       1.665517570211e-12      -7.861680407502e-15 
   95       3.600890174025e-10       9.677813631121e-14      -2.805609167487e-12       3.594708881335e-16       1.148858071239e-11       1.628412204990e-12      -7.794758311003e-15 
   96       3.643902131834e-10       9.888953464841e-14      -2.896878405218e-12       3.671382609908e-16       1.117798105562e-11       1.592463644307e-12      -7.719729494289e-15 
   97       3.687219425685e-10       1.009889541982e-13      -2.988515183820e-12       3.748919619684e-16       1.087841994453e-11       1.557670099839e-12      -7.637999247577e-15 
   98       3.730839500820e-10       1.030744274214e-13      -3.080451546721e-12       3.827325569271e-16       1.058964815830e-11       1.524018733512e-12      -7.551101494480e-15 
   99       3.774757978076e-10       1.051439596831e-13      -3.172618315758e-12       3.906606400035e-16       1.031130575150e-11       1.491485249439e-12      -7.460702073695e-15 
  100       3.818968579699e-10       1.071955297251e-13      -3.264945110999e-12       3.986768342171e-16       1.004291825262e-11       1.460033485860e-12      -7.368602020688e-15 
  101       3.863463055147e-10       1.092270901380e-13      -3.357360370568e-12       4.067817920778e-16       9.783892862628e-12       1.429615007089e-12      -7.276740849378e-15 
  102       3.908231106895e-10       1.112365678343e-13      -3.449791370468e-12       4.149761961928e-16       9.533514653525e-12       1.400168695453e-12      -7.187199833826e-15 
  103       3.953260316250e-10       1.132218645201e-13      -3.542164244403e-12       4.232607598743e-16       9.290942766879e-12       1.371620343235e-12      -7.102205289919e-15 
  104       3.998538701553e-10       1.151809082657e-13      -3.634404556184e-12       4.316362043565e-16       9.055400658391e-12       1.343899594522e-12      -7.023644275383e-15 
  105       4.044062946193e-10       1.171118151330e-13      -3.726439062332e-12       4.401031856337e-16       8.826784287704e-12       1.316994256087e-12      -6.951530113878e-15 
  106       4.089831148940e-10       1.190127503638e-13      -3.818194225641e-12       4.486623588252e-16       8.605129381644e-12       1.290902596534e-12      -6.885334738603e-15 
  107       4.135840246073e-10       1.208818802530e-13      -3.909595709438e-12       4.573144010291e-16       8.390423075816e-12       1.265616436762e-12      -6.824455712372e-15 
