# Matter power spectrum P(k) at redshift z=99
# for k=1.00899e-05 to 203.102 h/Mpc,
# number of wavenumbers equal to 845
#    1:k (h/Mpc)              2:P (Mpc/h)^3        
       1.008985923246e-05       4.868385471349e-03 
       2.251775554681e-05       3.993259109293e-02 
       3.498636120247e-05       4.131503407398e-02 
       4.752690064658e-05       4.678336242124e-02 
       6.017107953230e-05       5.236040839923e-02 
       7.295134796122e-05       6.148061069575e-02 
       8.590117158737e-05       6.929636855462e-02 
       9.905531395762e-05       7.683730774742e-02 
       1.124501334903e-04       8.670053711733e-02 
       1.261238985241e-04       9.661907675995e-02 
       1.401171238832e-04       1.067415927745e-01 
       1.544729323814e-04       1.179914802842e-01 
       1.692374445844e-04       1.285079478750e-01 
       1.844601999316e-04       1.399756743577e-01 
       2.001946119095e-04       1.512315278154e-01 
       2.164984592990e-04       1.635555579268e-01 
       2.334344144703e-04       1.759463812152e-01 
       2.510706081373e-04       1.879870508766e-01 
       2.694812277303e-04       2.012329210912e-01 
       2.887471433953e-04       2.151232969383e-01 
       3.089565513139e-04       2.294858595236e-01 
       3.302056182976e-04       2.445090600705e-01 
       3.525991041420e-04       2.604196245115e-01 
       3.762509287930e-04       2.771437312005e-01 
       4.012846398372e-04       2.948556378526e-01 
       4.278337222871e-04       3.135469219835e-01 
       4.560416775835e-04       3.332987013320e-01 
       4.860617833145e-04       3.543238795074e-01 
       5.180564313506e-04       3.765803679968e-01 
       5.521959330390e-04       4.004369541650e-01 
       5.886566801031e-04       4.256890454074e-01 
       6.276185643138e-04       4.525987463048e-01 
       6.692615934693e-04       4.813054728470e-01 
       7.137617003222e-04       5.118036982477e-01 
       7.612858261435e-04       5.442803674699e-01 
       8.119864671933e-04       5.788179896737e-01 
       8.659959882004e-04       6.154307905794e-01 
       9.234211115549e-04       6.541739586764e-01 
       9.843380583383e-04       6.951374034012e-01 
       1.048788822492e-03       7.382648055498e-01 
       1.116778986862e-03       7.835208603402e-01 
       1.188277341593e-03       8.309091405032e-01 
       1.263217364035e-03       8.803039646622e-01 
       1.341500403710e-03       9.316140338189e-01 
       1.423000229794e-03       9.846885545979e-01 
       1.507568477172e-03       1.039496911216e+00 
       1.595040487038e-03       1.095782957314e+00 
       1.685241074673e-03       1.153423981786e+00 
       1.777989849548e-03       1.212283453230e+00 
       1.873105833077e-03       1.272199982770e+00 
       1.970411240942e-03       1.333013683076e+00 
       2.069734400901e-03       1.394572203579e+00 
       2.170911853969e-03       1.456752852528e+00 
       2.273789735124e-03       1.519424269309e+00 
       2.378224553043e-03       1.582442175581e+00 
       2.484083492891e-03       1.645716771967e+00 
       2.591244358339e-03       1.709121720544e+00 
       2.699595254278e-03       1.772566202415e+00 
       2.809034094327e-03       1.835957945495e+00 
       2.919467999818e-03       1.899216096517e+00 
       3.030812641171e-03       1.962267956993e+00 
       3.142991559080e-03       2.025031311873e+00 
       3.255935491967e-03       2.087450233452e+00 
       3.369581727509e-03       2.149468586213e+00 
       3.483873489548e-03       2.211029562282e+00 
       3.598759366763e-03       2.272083466305e+00 
       3.714192786088e-03       2.332590051283e+00 
       3.830131531369e-03       2.392510095374e+00 
       3.946537306183e-03       2.451801978524e+00 
       4.063375338686e-03       2.510441083956e+00 
       4.180614025754e-03       2.568391532531e+00 
       4.298224613405e-03       2.625632604575e+00 
       4.416180910359e-03       2.682139077325e+00 
       4.534459031676e-03       2.737888688282e+00 
       4.653037169509e-03       2.792866184459e+00 
       4.771895388214e-03       2.847054928609e+00 
       4.891015441268e-03       2.900441210924e+00 
       5.010380607654e-03       2.953012708355e+00 
       5.129975545600e-03       3.004759340086e+00 
       5.249786161774e-03       3.055674544838e+00 
       5.369799494223e-03       3.105750698855e+00 
       5.490003607537e-03       3.154983170542e+00 
       5.610387498875e-03       3.203366358617e+00 
       5.730941013670e-03       3.250901375491e+00 
       5.851654769906e-03       3.297586647598e+00 
       5.972520090068e-03       3.343419895632e+00 
       6.093528939880e-03       3.388403611864e+00 
       6.214673873133e-03       3.432539497325e+00 
       6.335947981903e-03       3.475832512589e+00 
       6.457344851613e-03       3.518283449070e+00 
       6.578858520406e-03       3.559896810895e+00 
       6.700483442374e-03       3.600677220899e+00 
       6.822214454238e-03       3.640633283602e+00 
       6.944046745134e-03       3.679767056939e+00 
       7.065975829162e-03       3.718090167122e+00 
       7.187997520434e-03       3.755610344315e+00 
       7.310107910369e-03       3.792331111520e+00 
       7.432303346994e-03       3.828257246090e+00 
       7.554580416073e-03       3.863403490260e+00 
       7.676935923868e-03       3.897779935728e+00 
       7.799366881390e-03       3.931388437961e+00 
       7.921870489981e-03       3.964235620095e+00 
       8.044444128110e-03       3.996343279106e+00 
       8.167085339271e-03       4.027708974604e+00 
       8.289791820870e-03       4.058346937425e+00 
       8.412561414027e-03       4.088269235884e+00 
       8.535392094189e-03       4.117474683441e+00 
       8.658281962499e-03       4.145981454990e+00 
       8.781229237845e-03       4.173795308784e+00 
       8.904232249532e-03       4.200927521910e+00 
       9.027289430517e-03       4.227385259799e+00 
       9.150399311170e-03       4.253175955220e+00 
       9.273560513504e-03       4.278316422399e+00 
       9.396771745844e-03       4.302805670445e+00 
       9.520031797891e-03       4.326652202371e+00 
       9.643339536152e-03       4.349878928861e+00 
       9.766693899711e-03       4.372475296072e+00 
       9.890093896300e-03       4.394460497083e+00 
       1.001353859866e-02       4.415842810746e+00 
       1.013702714118e-02       4.436631539705e+00 
       1.026055871672e-02       4.456824669302e+00 
       1.038413257374e-02       4.476438105726e+00 
       1.050774801356e-02       4.495480345771e+00 
       1.063140438788e-02       4.513951565599e+00 
       1.075510109639e-02       4.531868338606e+00 
       1.087883758462e-02       4.549234141597e+00 
       1.100261334193e-02       4.566052577533e+00 
       1.112642789957e-02       4.582336346676e+00 
       1.125028082899e-02       4.598085741385e+00 
       1.137417174014e-02       4.613317677309e+00 
       1.149810028000e-02       4.628023190195e+00 
       1.162206613114e-02       4.642222176802e+00 
       1.174606901039e-02       4.655914947733e+00 
       1.187010866765e-02       4.669111291849e+00 
       1.199418488471e-02       4.681816626934e+00 
       1.211829747421e-02       4.694030603920e+00 
       1.224244627863e-02       4.705768860810e+00 
       1.236663116941e-02       4.717028090688e+00 
       1.249085204607e-02       4.727827394563e+00 
       1.261510883545e-02       4.738155461608e+00 
       1.273940149094e-02       4.748033113287e+00 
       1.286372999182e-02       4.757456897057e+00 
       1.298809434267e-02       4.766432655739e+00 
       1.311249457272e-02       4.774968431197e+00 
       1.323693073542e-02       4.783069728478e+00 
       1.336140290784e-02       4.790738498871e+00 
       1.348591119034e-02       4.797989179124e+00 
       1.361045570605e-02       4.804817053071e+00 
       1.373503660061e-02       4.811228955824e+00 
       1.385965404174e-02       4.817234729267e+00 
       1.398430821901e-02       4.822835815624e+00 
       1.410899934352e-02       4.828036428682e+00 
       1.423372764771e-02       4.832847944543e+00 
       1.435849338511e-02       4.837269452753e+00 
       1.448329683018e-02       4.841308770896e+00 
       1.460813827812e-02       4.844969288018e+00 
       1.473301804481e-02       4.848255590865e+00 
       1.485793646664e-02       4.851172817603e+00 
       1.498289390044e-02       4.853728862480e+00 
       1.510789072347e-02       4.855925693734e+00 
       1.523292733332e-02       4.857769807185e+00 
       1.535800414793e-02       4.859263359927e+00 
       1.548312160558e-02       4.860410678716e+00 
       1.560828016494e-02       4.861223067016e+00 
       1.573348030509e-02       4.861693488373e+00 
       1.585872252561e-02       4.861847297748e+00 
       1.598400734663e-02       4.861674590838e+00 
       1.610933530897e-02       4.861166813651e+00 
       1.623470697422e-02       4.860349356517e+00 
       1.636012292492e-02       4.859229046285e+00 
       1.648558376469e-02       4.857791547829e+00 
       1.661109011841e-02       4.856057624571e+00 
       1.673664263240e-02       4.854020520603e+00 
       1.686224197463e-02       4.851691837557e+00 
       1.698788883495e-02       4.849070718927e+00 
       1.711358392534e-02       4.846174093639e+00 
       1.723932798012e-02       4.842982269533e+00 
       1.736512175629e-02       4.839537294692e+00 
       1.749096603375e-02       4.835802970815e+00 
       1.761686161566e-02       4.831809029329e+00 
       1.774280932873e-02       4.827541000405e+00 
       1.786881002356e-02       4.823022227375e+00 
       1.799486457501e-02       4.818246259504e+00 
       1.812097388257e-02       4.813220579000e+00 
       1.824713887072e-02       4.807949173728e+00 
       1.837336048938e-02       4.802430042591e+00 
       1.849963971429e-02       4.796672703470e+00 
       1.862597754748e-02       4.790678979255e+00 
       1.875237501771e-02       4.784455864893e+00 
       1.887883318094e-02       4.777995326219e+00 
       1.900535312085e-02       4.771332283688e+00 
       1.913193594933e-02       4.764441804124e+00 
       1.925858280700e-02       4.757325876637e+00 
       1.938529486380e-02       4.750001728490e+00 
       1.951207331950e-02       4.742463920441e+00 
       1.963891940434e-02       4.734726346579e+00 
       1.976583437961e-02       4.726784222487e+00 
       1.989281953829e-02       4.718647976990e+00 
       2.001987620571e-02       4.710314553387e+00 
       2.014700574018e-02       4.701794421452e+00 
       2.027420953374e-02       4.693070548307e+00 
       2.040148901283e-02       4.684186327350e+00 
       2.052884563906e-02       4.675101619884e+00 
       2.065628090997e-02       4.665853796114e+00 
       2.078379635978e-02       4.656414671024e+00 
       2.091139356027e-02       4.646814388885e+00 
       2.103907412157e-02       4.637052662893e+00 
       2.116683969302e-02       4.627124999048e+00 
       2.129469196411e-02       4.617035357642e+00 
       2.142263266535e-02       4.606787029456e+00 
       2.155066356926e-02       4.596384520856e+00 
       2.167878649131e-02       4.585826211439e+00 
       2.180700329099e-02       4.575113737760e+00 
       2.193531587278e-02       4.564265145128e+00 
       2.206372618728e-02       4.553276363718e+00 
       2.219223623229e-02       4.542144371965e+00 
       2.232084805397e-02       4.530879832473e+00 
       2.244956374803e-02       4.519472590854e+00 
       2.257838546090e-02       4.507941303776e+00 
       2.270731539105e-02       4.496282925129e+00 
       2.283635579024e-02       4.484496031188e+00 
       2.296550896486e-02       4.472590632373e+00 
       2.309477727734e-02       4.460570356391e+00 
       2.322416314755e-02       4.448425666441e+00 
       2.335366905427e-02       4.436177058861e+00 
       2.348329753672e-02       4.423811857358e+00 
       2.361305119611e-02       4.411342258208e+00 
       2.374293269725e-02       4.398765818189e+00 
       2.387294477028e-02       4.386086539145e+00 
       2.400309021230e-02       4.373308419603e+00 
       2.413337188923e-02       4.360429198482e+00 
       2.426379273761e-02       4.347460624449e+00 
       2.439435576651e-02       4.334399111497e+00 
       2.452506405949e-02       4.321246428620e+00 
       2.465592077667e-02       4.308006444219e+00 
       2.478692915676e-02       4.294683751435e+00 
       2.491809251927e-02       4.281276036175e+00 
       2.504941426679e-02       4.267789757048e+00 
       2.518089788722e-02       4.254227596934e+00 
       2.531254695627e-02       4.240587321186e+00 
       2.544436513988e-02       4.226877699214e+00 
       2.557635619681e-02       4.213096804592e+00 
       2.570852398133e-02       4.199243844227e+00 
       2.584087244594e-02       4.185327036911e+00 
       2.597340564424e-02       4.171348663367e+00 
       2.610612773389e-02       4.157306975725e+00 
       2.623904297966e-02       4.143204018435e+00 
       2.637215575665e-02       4.129044908363e+00 
       2.650547055353e-02       4.114829785362e+00 
       2.663899197597e-02       4.100561126253e+00 
       2.677272475021e-02       4.086242303520e+00 
       2.690667372668e-02       4.071875086327e+00 
       2.704084388387e-02       4.057456277204e+00 
       2.717524033223e-02       4.042992489400e+00 
       2.730986831833e-02       4.028486690674e+00 
       2.744473322907e-02       4.013937953872e+00 
       2.757984059617e-02       3.999350661046e+00 
       2.771519610072e-02       3.984722523269e+00 
       2.785080557800e-02       3.970057998706e+00 
       2.798667502244e-02       3.955360559131e+00 
       2.812281059279e-02       3.940628950459e+00 
       2.825921861753e-02       3.925865509846e+00 
       2.839590560043e-02       3.911071979974e+00 
       2.853287822642e-02       3.896250533450e+00 
       2.867014336763e-02       3.881401856272e+00 
       2.880770808975e-02       3.866528687509e+00 
       2.894557965859e-02       3.851631187809e+00 
       2.908376554696e-02       3.836711311019e+00 
       2.922227344183e-02       3.821771790531e+00 
       2.936111125182e-02       3.806812579100e+00 
       2.950028711498e-02       3.791833376795e+00 
       2.963980940692e-02       3.776839473769e+00 
       2.977968674934e-02       3.761829722725e+00 
       2.991992801888e-02       3.746806191089e+00 
       3.006054235642e-02       3.731771157402e+00 
       3.020153917674e-02       3.716721640859e+00 
       3.034292817872e-02       3.701664522764e+00 
       3.048471935591e-02       3.686597054051e+00 
       3.062692300766e-02       3.671523900917e+00 
       3.076954975073e-02       3.656441266096e+00 
       3.091261053153e-02       3.641354765506e+00 
       3.105611663883e-02       3.626261438918e+00 
       3.120007971717e-02       3.611165538234e+00 
       3.134451178094e-02       3.596068337791e+00 
       3.148942522908e-02       3.580968306578e+00 
       3.163483286058e-02       3.565867065040e+00 
       3.178074789075e-02       3.550766636935e+00 
       3.192718396829e-02       3.535666803674e+00 
       3.207415519325e-02       3.520570603299e+00 
       3.222167613596e-02       3.505475524114e+00 
       3.236976185693e-02       3.490383341557e+00 
       3.251842792776e-02       3.475297118492e+00 
       3.266769045326e-02       3.460214660805e+00 
       3.281756609471e-02       3.445139214745e+00 
       3.296807209441e-02       3.430069229977e+00 
       3.311922630162e-02       3.415007104328e+00 
       3.327104719986e-02       3.399951368971e+00 
       3.342355393590e-02       3.384902668794e+00 
       3.357676635028e-02       3.369864887877e+00 
       3.373070500968e-02       3.354833130240e+00 
       3.388539124115e-02       3.339812996504e+00 
       3.404084716838e-02       3.324801276243e+00 
       3.419709575014e-02       3.309801923139e+00 
       3.435416082110e-02       3.294812042395e+00 
       3.451206713503e-02       3.279834051008e+00 
       3.467084041087e-02       3.264867346934e+00 
       3.483050738153e-02       3.249909919349e+00 
       3.499109584590e-02       3.234964832203e+00 
       3.515263472420e-02       3.220033718890e+00 
       3.531515411689e-02       3.205112647438e+00 
       3.547868536756e-02       3.190203534628e+00 
       3.564326112997e-02       3.175307587825e+00 
       3.580891543966e-02       3.160422574281e+00 
       3.597568379052e-02       3.145551320814e+00 
       3.614360321665e-02       3.130690910472e+00 
       3.631271238005e-02       3.115841107600e+00 
       3.648305166451e-02       3.101004866852e+00 
       3.665466327647e-02       3.086178698563e+00 
       3.682759135313e-02       3.071366492387e+00 
       3.700188207881e-02       3.056561625901e+00 
       3.717758380999e-02       3.041768332026e+00 
       3.735474721006e-02       3.026984636569e+00 
       3.753342539455e-02       3.012213778600e+00 
       3.771367408789e-02       2.997447561575e+00 
       3.789555179276e-02       2.982691668611e+00 
       3.807911997330e-02       2.967944275015e+00 
       3.826444325354e-02       2.953203805480e+00 
       3.845158963247e-02       2.938467685454e+00 
       3.864063071773e-02       2.923739198258e+00 
       3.883164197941e-02       2.909017013428e+00 
       3.902470302655e-02       2.894295817952e+00 
       3.921989790844e-02       2.879579073681e+00 
       3.941731544346e-02       2.864862544046e+00 
       3.961704957874e-02       2.850146499537e+00 
       3.981919978381e-02       2.835431365734e+00 
       4.002387148228e-02       2.820712260471e+00 
       4.023117652610e-02       2.805989855506e+00 
       4.044123371716e-02       2.791262051690e+00 
       4.065416938230e-02       2.776527363571e+00 
       4.087011800810e-02       2.761785237491e+00 
       4.108922294299e-02       2.747031966609e+00 
       4.131163717545e-02       2.732266298272e+00 
       4.153752419801e-02       2.717484487408e+00 
       4.176705896879e-02       2.702687773032e+00 
       4.200042898355e-02       2.687869427172e+00 
       4.223783547389e-02       2.673027489811e+00 
       4.247949474925e-02       2.658164933483e+00 
       4.272563970381e-02       2.643271334183e+00 
       4.297652151252e-02       2.628344749487e+00 
       4.323241154501e-02       2.613384503792e+00 
       4.349360353122e-02       2.598387141384e+00 
       4.376041601845e-02       2.583344973037e+00 
       4.403319516735e-02       2.568255743312e+00 
       4.431231794305e-02       2.553114812586e+00 
       4.459819576870e-02       2.537916419557e+00 
       4.489127872208e-02       2.522659361455e+00 
       4.519206037240e-02       2.507329525439e+00 
       4.550108337449e-02       2.491921721920e+00 
       4.581894596305e-02       2.476436341492e+00 
       4.614630952020e-02       2.460857454488e+00 
       4.648390742907e-02       2.445176901102e+00 
       4.683255547441e-02       2.429388852341e+00 
       4.719316411280e-02       2.413486434308e+00 
       4.756675301229e-02       2.397453425688e+00 
       4.795446835950e-02       2.381281302226e+00 
       4.835760355679e-02       2.364962382784e+00 
       4.877762409092e-02       2.348440712494e+00 
       4.921619755703e-02       2.331710796241e+00 
       4.967523007970e-02       2.314761212426e+00 
       5.015691069999e-02       2.297555371236e+00 
       5.066376571099e-02       2.280071625862e+00 
       5.119872543759e-02       2.262262134912e+00 
       5.176520658204e-02       2.244087250909e+00 
       5.236721398511e-02       2.225490396488e+00 
       5.300946643626e-02       2.206396943283e+00 
       5.369755186298e-02       2.186723702074e+00 
       5.443811750858e-02       2.166359033213e+00 
       5.523909986108e-02       2.145158610294e+00 
       5.610999569786e-02       2.122937928479e+00 
       5.706216693470e-02       2.099448493832e+00 
       5.810915311482e-02       2.074358184347e+00 
