# dimensionless total lensed [l(l+1)/2pi] C_l's
# for l=2 to 2500, i.e. number of multipoles equal to 2499
#
# -> if you prefer output in CAMB/HealPix/LensPix units/order, set 'format' to 'camb' in input file
# -> if you don't want to see such a header, set 'headers' to 'no' in input file
# -> for CMB lensing (phi), these are C_l^phi-phi for the lensing potential.
#    Remember the conversion factors:
#    C_l^dd (deflection) = l(l+1) C_l^phi-phi
#    C_l^gg (shear/convergence) = 1/4 (l(l+1))^2 C_l^phi-phi
#
# 1:l     2:TT                     3:EE                     4:TE                     5:BB                     6:phiphi                 7:TPhi                   8:Ephi               
    2       1.513662589406e-10       4.794188595198e-15       3.799578523334e-13       2.253234419842e-19       8.309219923790e-09       5.059266327237e-10      -2.012681271775e-12 
    3       1.417627106496e-10       6.054663328150e-15       4.281329240725e-13       4.507468218711e-19       5.130003819576e-09       3.573182041539e-10      -1.512238240332e-12 
    4       1.331037921041e-10       5.149027851595e-15       3.998174886696e-13       7.514646888736e-19       3.573562705063e-09       2.695891056960e-10      -9.768067743189e-13 
    5       1.266674810285e-10       3.373379026158e-15       3.391788268336e-13       1.127604515828e-18       2.668862529211e-09       2.123208552831e-10      -5.310363348388e-13 
    6       1.222179179651e-10       1.856592193665e-15       2.715913611196e-13       1.579320817191e-18       2.084784591583e-09       1.723415184625e-10      -2.072609354084e-13 
    7       1.192679720138e-10       9.992226769886e-16       2.117263960831e-13       2.106792154240e-18       1.680720001362e-09       1.430977330042e-10      -5.087597363728e-15 
    8       1.174591566942e-10       6.511395006149e-16       1.659106274646e-13       2.710217753708e-18       1.387271483770e-09       1.209824077584e-10       9.391182486526e-14 
    9       1.164929758859e-10       5.242419129298e-16       1.354210107940e-13       3.389813842739e-18       1.166770900435e-09       1.038447532051e-10       1.170809699452e-13 
   10       1.161218172146e-10       4.430323225890e-16       1.186565008012e-13       4.145809810163e-18       9.966898227513e-10       9.028466748317e-11       9.396021448877e-14 
   11       1.162495143752e-10       3.698732551699e-16       1.125852075374e-13       4.978444307217e-18       8.432950914222e-10       7.968991825547e-11       5.145270551317e-14 
   12       1.167301383796e-10       3.230967628989e-16       1.137810657309e-13       5.887961400000e-18       7.367613262550e-10       7.043997726266e-11       8.505587289426e-15 
   13       1.174939576390e-10       3.112600707106e-16       1.192702563560e-13       6.874606881152e-18       6.493067711245e-10       6.289703439564e-11      -2.257418427274e-14 
   14       1.184681121633e-10       3.231375136827e-16       1.268691626872e-13       7.938624839711e-18       5.765439780916e-10       5.631046551444e-11      -3.808018690459e-14 
   15       1.196502043762e-10       3.467116385067e-16       1.351593657057e-13       9.080254576208e-18       5.152969540515e-10       5.077371754762e-11      -3.911810790436e-14 
   16       1.209804941075e-10       3.813870814406e-16       1.435366688263e-13       1.029972793526e-17       4.632235269385e-10       4.602375627876e-11      -3.059068294517e-14 
   17       1.224488548509e-10       4.337937631424e-16       1.519028909457e-13       1.159726711077e-17       4.185542678496e-10       4.189548154188e-11      -1.835759880141e-14 
   18       1.240071297718e-10       5.088679349960e-16       1.604984570130e-13       1.297308275161e-17       3.797858330732e-10       3.827295351225e-11      -7.624982568383e-15 
   19       1.256668617103e-10       6.063636467657e-16       1.695641490848e-13       1.442737384406e-17       3.462998333113e-10       3.511643795592e-11      -8.588739715869e-16 
   20       1.274069372282e-10       7.237353340537e-16       1.792801991988e-13       1.596032476423e-17       3.168085848727e-10       3.233200686911e-11       6.140695032339e-16 
   21       1.292335487324e-10       8.603786301781e-16       1.896000411313e-13       1.757210834847e-17       2.908488689650e-10       2.986829338650e-11      -2.208168493762e-15 
   22       1.311281859488e-10       1.015944429928e-15       2.003017124148e-13       1.926288264269e-17       2.677987881373e-10       2.764885867072e-11      -7.116118572778e-15 
   23       1.330888956471e-10       1.190199857480e-15       2.109457599527e-13       2.103279550103e-17       2.473414807641e-10       2.565102552290e-11      -1.224149682665e-14 
   24       1.350986704476e-10       1.382867954200e-15       2.209891795797e-13       2.288198128151e-17       2.290044135124e-10       2.384708903640e-11      -1.576015812597e-14 
   25       1.371683853625e-10       1.594493897050e-15       2.301611689828e-13       2.481056722094e-17       2.125718565616e-10       2.222953147677e-11      -1.704109239513e-14 
   26       1.392986212351e-10       1.826088134088e-15       2.382861982364e-13       2.681866944874e-17       1.977462461522e-10       2.077870176614e-11      -1.603215561532e-14 
   27       1.414751882487e-10       2.079707507240e-15       2.452966708831e-13       2.890639903411e-17       1.843496217574e-10       1.946627341077e-11      -1.354581517384e-14 
   28       1.436712544222e-10       2.357723509815e-15       2.511871266598e-13       3.107385927298e-17       1.721509394524e-10       1.825426778632e-11      -1.074028612220e-14 
   29       1.458969898187e-10       2.661582346087e-15       2.560230529860e-13       3.332115517066e-17       1.610878345057e-10       1.714153436564e-11      -8.251360541457e-15 
   30       1.481634095097e-10       2.992427380503e-15       2.599278015199e-13       3.564838576418e-17       1.510414650512e-10       1.612987934899e-11      -6.645690199417e-15 
   31       1.504705131825e-10       3.351331679562e-15       2.630265294826e-13       3.805564408218e-17       1.418068586137e-10       1.521152799798e-11      -6.414022752135e-15 
   32       1.528206913712e-10       3.739213742900e-15       2.652635776151e-13       4.054302856014e-17       1.333362488077e-10       1.437603016879e-11      -7.275751228192e-15 
   33       1.552074941301e-10       4.156875668740e-15       2.665154670921e-13       4.311063589632e-17       1.255696519382e-10       1.360397453600e-11      -8.597284461143e-15 
   34       1.576176454072e-10       4.605072838539e-15       2.666409243719e-13       4.575855957991e-17       1.183982963177e-10       1.287232627254e-11      -9.698963991745e-15 
   35       1.600555835948e-10       5.084712153219e-15       2.654976968058e-13       4.848689475031e-17       1.117854176193e-10       1.218302108023e-11      -1.034768132945e-14 
   36       1.625257413225e-10       5.596714998401e-15       2.629289096680e-13       5.129573534098e-17       1.056779126356e-10       1.154354809643e-11      -1.042998704454e-14 
   37       1.650275598394e-10       6.141948050630e-15       2.587910485256e-13       5.418517188345e-17       9.999623939754e-11       1.095824594976e-11      -9.880197831137e-15 
   38       1.675635005889e-10       6.721176469074e-15       2.530702345563e-13       5.715528763531e-17       9.472567193614e-11       1.042523263120e-11      -8.880128555125e-15 
   39       1.701324506529e-10       7.335088297817e-15       2.458050595192e-13       6.020616142537e-17       8.984944455116e-11       9.937905346746e-12      -7.730192159736e-15 
   40       1.727267401086e-10       7.984301258671e-15       2.370572560879e-13       6.333786883781e-17       8.532099481343e-11       9.485310271174e-12      -6.801766162031e-15 
   41       1.753364738342e-10       8.669405471946e-15       2.268887662817e-13       6.655047844996e-17       8.108017199310e-11       9.055444959380e-12      -6.434819690516e-15 
   42       1.779657966226e-10       9.391119112288e-15       2.152805997956e-13       6.984403879959e-17       7.711445503555e-11       8.647307018016e-12      -6.579826810934e-15 
   43       1.806208210388e-10       1.015017588490e-14       2.021899201079e-13       7.321858736630e-17       7.341328926444e-11       8.262173596316e-12      -7.046906727541e-15 
   44       1.833047918016e-10       1.094728098714e-14       1.875718311668e-13       7.667415393101e-17       6.994971750427e-11       7.900184731560e-12      -7.599895611021e-15 
   45       1.860187852817e-10       1.178307329309e-14       1.713798820659e-13       8.021075603288e-17       6.668999883666e-11       7.560620961829e-12      -8.012377354116e-15 
   46       1.887647935033e-10       1.265800137081e-14       1.535684093464e-13       8.382838408730e-17       6.362897033127e-11       7.243074537913e-12      -8.262401573280e-15 
   47       1.915430307628e-10       1.357240827320e-14       1.340904269339e-13       8.752701155376e-17       6.076303644216e-11       6.946455544898e-12      -8.391177999862e-15 
   48       1.943507542810e-10       1.452656161735e-14       1.128966828711e-13       9.130659853907e-17       5.807950382039e-11       6.668565411572e-12      -8.449829877384e-15 
   49       1.971820100958e-10       1.552065022887e-14       8.993542909116e-14       9.516709138892e-17       5.555590499218e-11       6.406017156819e-12      -8.499961195876e-15 
   50       2.000303916481e-10       1.655481200058e-14       6.515854537746e-14       9.910842228189e-17       5.316675755730e-11       6.155219655844e-12      -8.600214299909e-15 
   51       2.028987878140e-10       1.762923416821e-14       3.854240502971e-14       1.031305088292e-16       5.090757379459e-11       5.915830432363e-12      -8.760325163579e-15 
   52       2.057918416265e-10       1.874407445300e-14       1.007227498752e-14       1.072332536604e-16       4.877619912863e-11       5.688102228836e-12      -8.975577438606e-15 
   53       2.087130591766e-10       1.989943038446e-14      -2.026347617570e-14       1.114165440124e-16       4.676562754074e-11       5.471871922572e-12      -9.239632232170e-15 
   54       2.116646972799e-10       2.109533741367e-14      -5.247330945804e-14       1.156802513214e-16       4.486367515390e-11       5.266530843651e-12      -9.544436064721e-15 
   55       2.146480683397e-10       2.233178138256e-14      -8.656304643840e-14       1.200242405201e-16       4.305669198077e-11       5.071285917679e-12      -9.879780799137e-15 
   56       2.176648009666e-10       2.360874388152e-14      -1.225377743824e-13       1.244484015682e-16       4.134252473606e-11       4.886087061783e-12      -1.023206626790e-14 
   57       2.207156957638e-10       2.492616485489e-14      -1.604002939062e-13       1.289526250395e-16       3.972020252345e-11       4.710878183199e-12      -1.058506903681e-14 
   58       2.238002415810e-10       2.628392793372e-14      -2.001505162006e-13       1.335367930732e-16       3.818601540662e-11       4.545308587546e-12      -1.092016019869e-14 
   59       2.269165194357e-10       2.768185910832e-14      -2.417854176055e-13       1.382007793437e-16       3.673334532523e-11       4.388714627590e-12      -1.121619977164e-14 
   60       2.300611064350e-10       2.911972540093e-14      -2.852989941835e-13       1.429444490302e-16       3.535249701092e-11       4.240101351997e-12      -1.144943109728e-14 
   61       2.332305336872e-10       3.059718297328e-14      -3.306830766596e-13       1.477676760568e-16       3.403338657262e-11       4.098414728567e-12      -1.159905988905e-14 
   62       2.364262598010e-10       3.211361084112e-14      -3.779300917579e-13       1.526703994022e-16       3.277469497310e-11       3.963471232675e-12      -1.166569363637e-14 
   63       2.396506483289e-10       3.366823730981e-14      -4.270308428886e-13       1.576525794329e-16       3.157647845633e-11       3.835205299912e-12      -1.165687256664e-14 
   64       2.429054664399e-10       3.526018437207e-14      -4.779736867084e-13       1.627141822566e-16       3.043741532042e-11       3.713388213163e-12      -1.158182350856e-14 
   65       2.461918381482e-10       3.688846477621e-14      -5.307445149937e-13       1.678551802391e-16       2.935472750530e-11       3.597618971071e-12      -1.145153465998e-14 
   66       2.495101975412e-10       3.855197909440e-14      -5.853267365135e-13       1.730755525229e-16       2.832410218040e-11       3.487315156502e-12      -1.127883035581e-14 
   67       2.528602420077e-10       4.024951279083e-14      -6.417012589025e-13       1.783752855442e-16       2.733961333233e-11       3.381703805009e-12      -1.107844583596e-14 
   68       2.562414742016e-10       4.197984488357e-14      -6.998464634211e-13       1.837543812464e-16       2.639530203544e-11       3.280024360281e-12      -1.086448213915e-14 
   69       2.596550600014e-10       4.374210605076e-14      -7.597381638151e-13       1.892128824933e-16       2.549046436649e-11       3.182205706365e-12      -1.064200480780e-14 
   70       2.631022647293e-10       4.553548815276e-14      -8.213496065178e-13       1.947508537589e-16       2.462529902042e-11       3.088310546023e-12      -1.041386935437e-14 
   71       2.665838665797e-10       4.735913898255e-14      -8.846514590443e-13       2.003683745898e-16       2.379930808523e-11       2.998331810932e-12      -1.018319813878e-14 
   72       2.701001249046e-10       4.921216218796e-14      -9.496117916829e-13       2.060655403194e-16       2.301126105123e-11       2.912188954373e-12      -9.953388131889e-15 
   73       2.736507484995e-10       5.109361719397e-14      -1.016196059186e-12       2.118424627827e-16       2.225915882024e-11       2.829724243913e-12      -9.728118678902e-15 
   74       2.772348638880e-10       5.300251912503e-14      -1.084367082461e-12       2.176992710308e-16       2.154019771487e-11       2.750699054094e-12      -9.511359262851e-15 
   75       2.808509836078e-10       5.493783872728e-14      -1.154085030261e-12       2.236361120454e-16       2.085073348774e-11       2.674790159115e-12      -9.307377268022e-15 
   76       2.844976619594e-10       5.689845692081e-14      -1.225308950247e-12       2.296531418054e-16       2.018718446640e-11       2.601673818665e-12      -9.119974801096e-15 
   77       2.881756704098e-10       5.888301906000e-14      -1.298001724970e-12       2.357504950248e-16       1.954901068246e-11       2.531303932826e-12      -8.950021324031e-15 
   78       2.918861631084e-10       6.089005383217e-14      -1.372125990567e-12       2.419283111690e-16       1.893621513703e-11       2.463678110275e-12      -8.797483099090e-15 
   79       2.956300072829e-10       6.291801527824e-14      -1.447642680818e-12       2.481867441215e-16       1.834843639738e-11       2.398752498770e-12      -8.662146300332e-15 
   80       2.994077656224e-10       6.496528178462e-14      -1.524511040601e-12       2.545259627009e-16       1.778493186388e-11       2.336439878107e-12      -8.543608968256e-15 
   81       3.032196786594e-10       6.703015507518e-14      -1.602688639361e-12       2.609461511774e-16       1.724456103695e-11       2.276607753073e-12      -8.441272964453e-15 
   82       3.070656471524e-10       6.911085920319e-14      -1.682131384565e-12       2.674475097897e-16       1.672576878410e-11       2.219076446402e-12      -8.354335926253e-15 
   83       3.109452144680e-10       7.120553954323e-14      -1.762793535171e-12       2.740302552615e-16       1.622656860685e-11       2.163617191731e-12      -8.281783221376e-15 
   84       3.148578633938e-10       7.331232273679e-14      -1.844627101441e-12       2.806946182164e-16       1.574502446009e-11       2.110007397525e-12      -8.222348897414e-15 
   85       3.188040017020e-10       7.542951015530e-14      -1.927579900595e-12       2.874408337982e-16       1.528082463855e-11       2.058211142667e-12      -8.174408715254e-15 
   86       3.227841084300e-10       7.755541481006e-14      -2.011597202007e-12       2.942691504357e-16       1.483393934130e-11       2.008225245866e-12      -8.136054549658e-15 
   87       3.267984218258e-10       7.968830326626e-14      -2.096622315300e-12       3.011798332640e-16       1.440413708708e-11       1.960023822880e-12      -8.105115377605e-15 
   88       3.308469270149e-10       8.182639565941e-14      -2.182596593487e-12       3.081731645895e-16       1.399097636026e-11       1.913557340328e-12      -8.079148711845e-15 
   89       3.349293436674e-10       8.396786571164e-14      -2.269459436125e-12       3.152494443539e-16       1.359379725689e-11       1.868751669503e-12      -8.055432034447e-15 
   90       3.390451136645e-10       8.611084074811e-14      -2.357148292459e-12       3.224089905995e-16       1.321171313069e-11       1.825507140181e-12      -8.030954230359e-15 
   91       3.431933887660e-10       8.825340171336e-14      -2.445598664578e-12       3.296521399329e-16       1.284360223902e-11       1.783697594436e-12      -8.002407020956e-15 
   92       3.473730182772e-10       9.039358318766e-14      -2.534744110558e-12       3.369792479904e-16       1.248809938896e-11       1.743169440448e-12      -7.966176397599e-15 
   93       3.515828938427e-10       9.252940660876e-14      -2.624517459516e-12       3.443907003127e-16       1.214391921621e-11       1.703779887519e-12      -7.919196956884e-15 
   94       3.558230699378e-10       9.465898561701e-14      -2.714854658987e-12       3.518869458327e-16       1.181089978508e-11       1.665520284328e-12      -7.861680495503e-15 
   95       3.600937898811e-10       9.678043665808e-14      -2.805691514703e-12       3.594684693066e-16       1.148910123065e-11       1.628409667662e-12      -7.794783867268e-15 
   96       3.643951363910e-10       9.889184765527e-14      -2.896962549774e-12       3.671357819518e-16       1.117848436030e-11       1.592456831189e-12      -7.719785881683e-15 
   97       3.687270241554e-10       1.009912784816e-13      -2.988601024466e-12       3.748894220538e-16       1.087890685196e-11       1.557659917095e-12      -7.638090582406e-15 
   98       3.730891924003e-10       1.030767614320e-13      -3.080538955990e-12       3.827299555744e-16       1.059011945240e-11       1.524006007738e-12      -7.551230525714e-15 
   99       3.774811974597e-10       1.051463016955e-13      -3.172707138283e-12       3.906579767585e-16       1.031176217550e-11       1.491470717288e-12      -7.460870058970e-15 
  100       3.819024053439e-10       1.071978778273e-13      -3.265035161794e-12       3.986741087422e-16       1.004336050054e-11       1.460017783375e-12      -7.368808599080e-15 
  101       3.863519843095e-10       1.092294422214e-13      -3.357451433267e-12       4.067790041597e-16       9.784321570482e-12       1.429598658735e-12      -7.276983910961e-15 
  102       3.908288974280e-10       1.112389215818e-13      -3.449883195529e-12       4.149733457513e-16       9.533930390219e-12       1.400152102853e-12      -7.187475386007e-15 
  103       3.953318951552e-10       1.132242173959e-13      -3.542256547271e-12       4.232578469705e-16       9.291346024884e-12       1.371603773613e-12      -7.102507320545e-15 
  104       3.998597731464e-10       1.151832575715e-13      -3.634497026925e-12       4.316332291784e-16       9.055791859768e-12       1.343883189922e-12      -7.023965084864e-15 
  105       4.044122013704e-10       1.171141582796e-13      -3.726531411508e-12       4.401001484093e-16       8.827163839186e-12       1.316978108757e-12      -6.951862133418e-15 
  106       4.089889936647e-10       1.190150849564e-13      -3.818286198791e-12       4.486592597984e-16       8.605497686819e-12       1.290886766576e-12      -6.885671057998e-15 
  107       4.135898480301e-10       1.208842041120e-13      -3.909687090575e-12       4.573112404580e-16       8.390780532168e-12       1.265600949434e-12      -6.824790155453e-15 
