# Matter power spectrum P(k) at redshift z=99
# for k=1.00899e-05 to 203.102 h/Mpc,
# number of wavenumbers equal to 845
#    1:k (h/Mpc)              2:P (Mpc/h)^3        
       1.008985923385e-05       8.603007917455e-03 
       2.251775554930e-05       1.859275926369e-02 
       3.498636120606e-05       2.838317048984e-02 
       4.752690065129e-05       3.808707102452e-02 
       6.017107953816e-05       4.776664906126e-02 
       7.295134796828e-05       5.746726278533e-02 
       8.590117159567e-05       6.722686435035e-02 
       9.905531396721e-05       7.707982704207e-02 
       1.124501335013e-04       8.705887250197e-02 
       1.261238985365e-04       9.719621447792e-02 
       1.401171238971e-04       1.075243306683e-01 
       1.544729323969e-04       1.180765414530e-01 
       1.692374446017e-04       1.288874988232e-01 
       1.844601999509e-04       1.399936127883e-01 
       2.001946119308e-04       1.514334601214e-01 
       2.164984593225e-04       1.632481813160e-01 
       2.334344144963e-04       1.754818786056e-01 
       2.510706081659e-04       1.881820219662e-01 
       2.694812277618e-04       2.013998538006e-01 
       2.887471434300e-04       2.151908103509e-01 
       3.089565513521e-04       2.296149300737e-01 
       3.302056183397e-04       2.447372488802e-01 
       3.525991041884e-04       2.606281740434e-01 
       3.762509288441e-04       2.773637903100e-01 
       4.012846398935e-04       2.950260925097e-01 
       4.278337223492e-04       3.137030868891e-01 
       4.560416776520e-04       3.334887107151e-01 
       4.860617833901e-04       3.544825230081e-01 
       5.180564314341e-04       3.767890766538e-01 
       5.521959331310e-04       4.005169161805e-01 
       5.886566802046e-04       4.257771275902e-01 
       6.276185644258e-04       4.526813587927e-01 
       6.692615935926e-04       4.813393130510e-01 
       7.137617004578e-04       5.118557045717e-01 
       7.612858262925e-04       5.443267462136e-01 
       8.119864673565e-04       5.788363209767e-01 
       8.659959883789e-04       6.154520794910e-01 
       9.234211117495e-04       6.542217155468e-01 
       9.843380585498e-04       6.951697974774e-01 
       1.048788822721e-03       7.382954377082e-01 
       1.116778987109e-03       7.835711246560e-01 
       1.188277341859e-03       8.309428185634e-01 
       1.263217364320e-03       8.803315689256e-01 
       1.341500404014e-03       9.316444831482e-01 
       1.423000230117e-03       9.847546940262e-01 
       1.507568477514e-03       1.039526713130e+00 
       1.595040487398e-03       1.095814363538e+00 
       1.685241075052e-03       1.153464974692e+00 
       1.777989849946e-03       1.212323166148e+00 
       1.873105833493e-03       1.272234125019e+00 
       1.970411241375e-03       1.333046301559e+00 
       2.069734401352e-03       1.394613374537e+00 
       2.170911854437e-03       1.456795777444e+00 
       2.273789735608e-03       1.519461679918e+00 
       2.378224553543e-03       1.582487398634e+00 
       2.484083493407e-03       1.645757761980e+00 
       2.591244358870e-03       1.709165794108e+00 
       2.699595254824e-03       1.772612989351e+00 
       2.809034094888e-03       1.836008390564e+00 
       2.919468000394e-03       1.899268652629e+00 
       3.030812641761e-03       1.962317219297e+00 
       3.142991559685e-03       2.025084430683e+00 
       3.255935492585e-03       2.087506140459e+00 
       3.369581728141e-03       2.149524217186e+00 
       3.483873490193e-03       2.211085492932e+00 
       3.598759367421e-03       2.272142213915e+00 
       3.714192786759e-03       2.332650010558e+00 
       3.830131532053e-03       2.392569659824e+00 
       3.946537306880e-03       2.451864818162e+00 
       4.063375339396e-03       2.510503857164e+00 
       4.180614026477e-03       2.568456930112e+00 
       4.298224614140e-03       2.625698889082e+00 
       4.416180911106e-03       2.682206274847e+00 
       4.534459032436e-03       2.737958139487e+00 
       4.653037170281e-03       2.792936901468e+00 
       4.771895388998e-03       2.847126189523e+00 
       4.891015442065e-03       2.900513179776e+00 
       5.010380608463e-03       2.953085760561e+00 
       5.129975546421e-03       3.004833273527e+00 
       5.249786162607e-03       3.055748781600e+00 
       5.369799495068e-03       3.105824912917e+00 
       5.490003608392e-03       3.155057858941e+00 
       5.610387499743e-03       3.203443303021e+00 
       5.730941014549e-03       3.250978518919e+00 
       5.851654770797e-03       3.297662803902e+00 
       5.972520090970e-03       3.343496844454e+00 
       6.093528940795e-03       3.388480891475e+00 
       6.214673874059e-03       3.432617124565e+00 
       6.335947982840e-03       3.475908895805e+00 
       6.457344852562e-03       3.518358626260e+00 
       6.578858521367e-03       3.559972490304e+00 
       6.700483443346e-03       3.600755051271e+00 
       6.822214455222e-03       3.640710773126e+00 
       6.944046746129e-03       3.679847058180e+00 
       7.065975830168e-03       3.718170943621e+00 
       7.187997521452e-03       3.755687542818e+00 
       7.310107911398e-03       3.792407328524e+00 
       7.432303348035e-03       3.828337436436e+00 
       7.554580417124e-03       3.863485735240e+00 
       7.676935924931e-03       3.897858847867e+00 
       7.799366882465e-03       3.931467407691e+00 
       7.921870491067e-03       3.964320192629e+00 
       8.044444129208e-03       3.996425716753e+00 
       8.167085340379e-03       4.027793392652e+00 
       8.289791821990e-03       4.058431288440e+00 
       8.412561415158e-03       4.088350241363e+00 
       8.535392095331e-03       4.117558614409e+00 
       8.658281963652e-03       4.146065408274e+00 
       8.781229239010e-03       4.173879109895e+00 
       8.904232250708e-03       4.201011556346e+00 
       9.027289431704e-03       4.227469388721e+00 
       9.150399312368e-03       4.253261824061e+00 
       9.273560514714e-03       4.278398648116e+00 
       9.396771747065e-03       4.302888227145e+00 
       9.520031799123e-03       4.326738839933e+00 
       9.643339537395e-03       4.349960381168e+00 
       9.766693900965e-03       4.372558972330e+00 
       9.890093897566e-03       4.394545425921e+00 
       1.001353859994e-02       4.415927819730e+00 
       1.013702714247e-02       4.436711892622e+00 
       1.026055871802e-02       4.456907042877e+00 
       1.038413257505e-02       4.476520561314e+00 
       1.050774801489e-02       4.495563303191e+00 
       1.063140438921e-02       4.514035915695e+00 
       1.075510109773e-02       4.531953679488e+00 
       1.087883758598e-02       4.549318680554e+00 
       1.100261334330e-02       4.566137675957e+00 
       1.112642790095e-02       4.582419367481e+00 
       1.125028083038e-02       4.598171051230e+00 
       1.137417174154e-02       4.613398188583e+00 
       1.149810028141e-02       4.628109139321e+00 
       1.162206613256e-02       4.642307045084e+00 
       1.174606901183e-02       4.656001420958e+00 
       1.187010866910e-02       4.669197282460e+00 
       1.199418488617e-02       4.681901364307e+00 
       1.211829747567e-02       4.694118125416e+00 
       1.224244628010e-02       4.705855855900e+00 
       1.236663117090e-02       4.717119644636e+00 
       1.249085204757e-02       4.727912811727e+00 
       1.261510883696e-02       4.738244876117e+00 
       1.273940149246e-02       4.748117926202e+00 
       1.286372999336e-02       4.757541945475e+00 
       1.298809434421e-02       4.766518851276e+00 
       1.311249457428e-02       4.775054270444e+00 
       1.323693073698e-02       4.783154319965e+00 
       1.336140290942e-02       4.790825207369e+00 
       1.348591119193e-02       4.798072683655e+00 
       1.361045570765e-02       4.804900306627e+00 
       1.373503660222e-02       4.811313959945e+00 
       1.385965404336e-02       4.817319494049e+00 
       1.398430822064e-02       4.822920963714e+00 
       1.410899934517e-02       4.828124882450e+00 
       1.423372764937e-02       4.832933414168e+00 
       1.435849338678e-02       4.837356024269e+00 
       1.448329683185e-02       4.841394075713e+00 
       1.460813827981e-02       4.845053280749e+00 
       1.473301804651e-02       4.848341447586e+00 
       1.485793646835e-02       4.851260273983e+00 
       1.498289390217e-02       4.853813454131e+00 
       1.510789072521e-02       4.856011557784e+00 
       1.523292733507e-02       4.857853189772e+00 
       1.535800414968e-02       4.859346802141e+00 
       1.548312160735e-02       4.860498514427e+00 
       1.560828016672e-02       4.861311226466e+00 
       1.573348030688e-02       4.861784980425e+00 
       1.585872252741e-02       4.861929954701e+00 
       1.598400734844e-02       4.861751153661e+00 
       1.610933531079e-02       4.861249232257e+00 
       1.623470697605e-02       4.860434612600e+00 
       1.636012292677e-02       4.859309202494e+00 
       1.648558376655e-02       4.857873704694e+00 
       1.661109012028e-02       4.856137391493e+00 
       1.673664263428e-02       4.854101874978e+00 
       1.686224197652e-02       4.851775282575e+00 
       1.698788883685e-02       4.849159712971e+00 
       1.711358392725e-02       4.846255828788e+00 
       1.723932798205e-02       4.843074786505e+00 
       1.736512175823e-02       4.839615756620e+00 
       1.749096603570e-02       4.835885132650e+00 
       1.761686161762e-02       4.831884280314e+00 
       1.774280933070e-02       4.827628127705e+00 
       1.786881002554e-02       4.823103846996e+00 
       1.799486457700e-02       4.818330041497e+00 
       1.812097388457e-02       4.813304001418e+00 
       1.824713887274e-02       4.808027358840e+00 
       1.837336049141e-02       4.802510214563e+00 
       1.849963971633e-02       4.796754053634e+00 
       1.862597754953e-02       4.790760040164e+00 
       1.875237501977e-02       4.784536226508e+00 
       1.887883318301e-02       4.778083896840e+00 
       1.900535312294e-02       4.771411410872e+00 
       1.913193595143e-02       4.764515111074e+00 
       1.925858280911e-02       4.757404924875e+00 
       1.938529486592e-02       4.750084096565e+00 
       1.951207332163e-02       4.742545425920e+00 
       1.963891940648e-02       4.734804730121e+00 
       1.976583438176e-02       4.726870642521e+00 
       1.989281954046e-02       4.718727120374e+00 
       2.001987620788e-02       4.710393237301e+00 
       2.014700574237e-02       4.701871878051e+00 
       2.027420953594e-02       4.693158217063e+00 
       2.040148901504e-02       4.684261823727e+00 
       2.052884564128e-02       4.675183887473e+00 
       2.065628091220e-02       4.665930460829e+00 
       2.078379636203e-02       4.656504264624e+00 
       2.091139356253e-02       4.646906013965e+00 
       2.103907412384e-02       4.637132979325e+00 
       2.116683969530e-02       4.627206855859e+00 
       2.129469196640e-02       4.617108933025e+00 
       2.142263266765e-02       4.606852877179e+00 
       2.155066357157e-02       4.596453659315e+00 
       2.167878649364e-02       4.585904595485e+00 
       2.180700329333e-02       4.575192051640e+00 
       2.193531587513e-02       4.564343613046e+00 
       2.206372618964e-02       4.553348195756e+00 
       2.219223623466e-02       4.542215932680e+00 
       2.232084805636e-02       4.530949770306e+00 
       2.244956375042e-02       4.519546568228e+00 
       2.257838546331e-02       4.508014016561e+00 
       2.270731539347e-02       4.496359684230e+00 
       2.283635579267e-02       4.484575582291e+00 
       2.296550896730e-02       4.472660062131e+00 
       2.309477727980e-02       4.460645756292e+00 
       2.322416315002e-02       4.448514382722e+00 
       2.335366905675e-02       4.436254187614e+00 
       2.348329753921e-02       4.423889705651e+00 
       2.361305119861e-02       4.411414470293e+00 
       2.374293269977e-02       4.398845083911e+00 
       2.387294477280e-02       4.386161394605e+00 
       2.400309021484e-02       4.373377831181e+00 
       2.413337189178e-02       4.360507121031e+00 
       2.426379274017e-02       4.347539190787e+00 
       2.439435576908e-02       4.334469273327e+00 
       2.452506406208e-02       4.321319584134e+00 
       2.465592077927e-02       4.308076727854e+00 
       2.478692915937e-02       4.294760843880e+00 
       2.491809252189e-02       4.281348543781e+00 
       2.504941426942e-02       4.267856190321e+00 
       2.518089788986e-02       4.254297427299e+00 
       2.531254695892e-02       4.240659738472e+00 
       2.544436514254e-02       4.226952059790e+00 
       2.557635619949e-02       4.213159614881e+00 
       2.570852398403e-02       4.199321493870e+00 
       2.584087244865e-02       4.185405129522e+00 
       2.597340564696e-02       4.171416607651e+00 
       2.610612773662e-02       4.157377177941e+00 
       2.623904298241e-02       4.143275795334e+00 
       2.637215575941e-02       4.129114808823e+00 
       2.650547055630e-02       4.114903816727e+00 
       2.663899197875e-02       4.100626394068e+00 
       2.677272475300e-02       4.086311644568e+00 
       2.690667372948e-02       4.071943776143e+00 
       2.704084388668e-02       4.057520674030e+00 
       2.717524033506e-02       4.043058594537e+00 
       2.730986832117e-02       4.028559111351e+00 
       2.744473323193e-02       4.014011578417e+00 
       2.757984059904e-02       3.999411189097e+00 
       2.771519610360e-02       3.984787428553e+00 
       2.785080558089e-02       3.970133803491e+00 
       2.798667502534e-02       3.955423647205e+00 
       2.812281059571e-02       3.940699356874e+00 
       2.825921862046e-02       3.925929254413e+00 
       2.839590560337e-02       3.911141474085e+00 
       2.853287822937e-02       3.896318473109e+00 
       2.867014337060e-02       3.881463723769e+00 
       2.880770809274e-02       3.866590675492e+00 
       2.894557966159e-02       3.851701108282e+00 
       2.908376554997e-02       3.836779799392e+00 
       2.922227344485e-02       3.821838301419e+00 
       2.936111125486e-02       3.806878365099e+00 
       2.950028711803e-02       3.791903783587e+00 
       2.963980940998e-02       3.776905050492e+00 
       2.977968675242e-02       3.761891255520e+00 
       2.991992802197e-02       3.746867809414e+00 
       3.006054235952e-02       3.731835059601e+00 
       3.020153917986e-02       3.716784186575e+00 
       3.034292818185e-02       3.701727052398e+00 
       3.048471935906e-02       3.686661256103e+00 
       3.062692301082e-02       3.671567766123e+00 
       3.076954975391e-02       3.656506595065e+00 
       3.091261053472e-02       3.641418021921e+00 
       3.105611664203e-02       3.626327966017e+00 
       3.120007972039e-02       3.611233688667e+00 
       3.134451178417e-02       3.596121770076e+00 
       3.148942523232e-02       3.581031558649e+00 
       3.163483286384e-02       3.565927001771e+00 
       3.178074789403e-02       3.550832137655e+00 
       3.192718397158e-02       3.535729502507e+00 
       3.207415519655e-02       3.520628430312e+00 
       3.222167613928e-02       3.505535191608e+00 
       3.236976186026e-02       3.490437917935e+00 
       3.251842793110e-02       3.475366915897e+00 
       3.266769045662e-02       3.460271890534e+00 
       3.281756609808e-02       3.445204738337e+00 
       3.296807209781e-02       3.430130081067e+00 
       3.311922630503e-02       3.415080767432e+00 
       3.327104720329e-02       3.400015649206e+00 
       3.342355393934e-02       3.384963847102e+00 
       3.357676635374e-02       3.369909757374e+00 
       3.373070501315e-02       3.354890912645e+00 
       3.388539124463e-02       3.339871199062e+00 
       3.404084717188e-02       3.324859642752e+00 
       3.419709575366e-02       3.309858966468e+00 
       3.435416082463e-02       3.294875063658e+00 
       3.451206713858e-02       3.279901038895e+00 
       3.467084041444e-02       3.264930034735e+00 
       3.483050738512e-02       3.249956094881e+00 
       3.499109584951e-02       3.235009938529e+00 
       3.515263472782e-02       3.220091843318e+00 
       3.531515412053e-02       3.205167796696e+00 
       3.547868537122e-02       3.190259005820e+00 
       3.564326113364e-02       3.175363117528e+00 
       3.580891544335e-02       3.160476670105e+00 
       3.597568379423e-02       3.145600894358e+00 
       3.614360322038e-02       3.130748099581e+00 
       3.631271238380e-02       3.115891587268e+00 
       3.648305166828e-02       3.101047570711e+00 
       3.665466328025e-02       3.086229435998e+00 
       3.682759135694e-02       3.071422349611e+00 
       3.700188208264e-02       3.056615824271e+00 
       3.717758381384e-02       3.041823498736e+00 
       3.735474721393e-02       3.027040810367e+00 
       3.753342539844e-02       3.012272056993e+00 
       3.771367409180e-02       2.997491795702e+00 
       3.789555179669e-02       2.982743401565e+00 
       3.807911997726e-02       2.967988840236e+00 
       3.826444325751e-02       2.953254357611e+00 
       3.845158963647e-02       2.938520891837e+00 
       3.864063072175e-02       2.923794577205e+00 
       3.883164198345e-02       2.909070784933e+00 
       3.902470303062e-02       2.894347631080e+00 
       3.921989791253e-02       2.879629908010e+00 
       3.941731544758e-02       2.864911668048e+00 
       3.961704958289e-02       2.850193325053e+00 
       3.981919978798e-02       2.835478912531e+00 
       4.002387148648e-02       2.820761731515e+00 
       4.023117653032e-02       2.806040515690e+00 
       4.044123372141e-02       2.791311003736e+00 
       4.065416938658e-02       2.776575771510e+00 
       4.087011801240e-02       2.761832350934e+00 
       4.108922294733e-02       2.747079852876e+00 
       4.131163717982e-02       2.732308337034e+00 
       4.153752420241e-02       2.717525392512e+00 
       4.176705897322e-02       2.702733432611e+00 
       4.200042898802e-02       2.687909257551e+00 
       4.223783547839e-02       2.673075694681e+00 
       4.247949475379e-02       2.658207251504e+00 
       4.272563970839e-02       2.643316721494e+00 
       4.297652151713e-02       2.628393584981e+00 
       4.323241154967e-02       2.613430923058e+00 
       4.349360353592e-02       2.598432523554e+00 
       4.376041602319e-02       2.583388074373e+00 
       4.403319517213e-02       2.568300102084e+00 
       4.431231794788e-02       2.553161393890e+00 
       4.459819577357e-02       2.537963486914e+00 
       4.489127872701e-02       2.522702537159e+00 
       4.519206037738e-02       2.507367826001e+00 
       4.550108337953e-02       2.491966851072e+00 
       4.581894596815e-02       2.476487573332e+00 
       4.614630952536e-02       2.460907261352e+00 
       4.648390743429e-02       2.445216340058e+00 
       4.683255547970e-02       2.429430703763e+00 
       4.719316411816e-02       2.413530261122e+00 
       4.756675301773e-02       2.397485067559e+00 
       4.795446836503e-02       2.381315608563e+00 
       4.835760356241e-02       2.364995944906e+00 
       4.877762409663e-02       2.348483230635e+00 
       4.921619756285e-02       2.331767634264e+00 
       4.967523008562e-02       2.314817954044e+00 
       5.015691070604e-02       2.297622729392e+00 
       5.066376571717e-02       2.280148718129e+00 
       5.119872544391e-02       2.262340098522e+00 
       5.176520658853e-02       2.244178623318e+00 
       5.236721399178e-02       2.225592160419e+00 
       5.300946644312e-02       2.206505806047e+00 
       5.369755187007e-02       2.186840730825e+00 
       5.443811751592e-02       2.166483770687e+00 
       5.523909986870e-02       2.145294395082e+00 
       5.610999570581e-02       2.123082327537e+00 
       5.706216694303e-02       2.099595178549e+00 
       5.810915312358e-02       2.074516123494e+00 
