# Matter power spectrum P(k) at redshift z=99
# for k=1.00899e-05 to 203.102 h/Mpc,
# number of wavenumbers equal to 845
#    1:k (h/Mpc)              2:P (Mpc/h)^3        
       1.008985923385e-05       8.603060054423e-03 
       2.251775554930e-05       1.859287194174e-02 
       3.498636120606e-05       2.838334250089e-02 
       4.752690065129e-05       3.808730184430e-02 
       6.017107953816e-05       4.776693854237e-02 
       7.295134796828e-05       5.746761105525e-02 
       8.590117159567e-05       6.722727176655e-02 
       9.905531396721e-05       7.708029417037e-02 
       1.124501335013e-04       8.705940010647e-02 
       1.261238985365e-04       9.719680351794e-02 
       1.401171238971e-04       1.075249823000e-01 
       1.544729323969e-04       1.180772570345e-01 
       1.692374446017e-04       1.288882799225e-01 
       1.844601999509e-04       1.399944611941e-01 
       2.001946119308e-04       1.514343778564e-01 
       2.164984593225e-04       1.632491706520e-01 
       2.334344144963e-04       1.754829420817e-01 
       2.510706081659e-04       1.881831624091e-01 
       2.694812277618e-04       2.014010743478e-01 
       2.887471434300e-04       2.151921144757e-01 
       3.089565513521e-04       2.296163216133e-01 
       3.302056183397e-04       2.447387320658e-01 
       3.525991041884e-04       2.606297535331e-01 
       3.762509288441e-04       2.773654712228e-01 
       4.012846398935e-04       2.950278804617e-01 
       4.278337223492e-04       3.137049880296e-01 
       4.560416776520e-04       3.334907317628e-01 
       4.860617833901e-04       3.544846712850e-01 
       5.180564314341e-04       3.767913601155e-01 
       5.521959331310e-04       4.005193434404e-01 
       5.886566802046e-04       4.257797079349e-01 
       6.276185644258e-04       4.526841021856e-01 
       6.692615935926e-04       4.813422301202e-01 
       7.137617004578e-04       5.118588065798e-01 
       7.612858262925e-04       5.443300450066e-01 
       8.119864673565e-04       5.788398289086e-01 
       8.659959883789e-04       6.154558093259e-01 
       9.234211117495e-04       6.542256803379e-01 
       9.843380585498e-04       6.951740104267e-01 
       1.048788822721e-03       7.382999120124e-01 
       1.116778987109e-03       7.835758733450e-01 
       1.188277341859e-03       8.309478543396e-01 
       1.263217364320e-03       8.803369040130e-01 
       1.341500404014e-03       9.316501292077e-01 
       1.423000230117e-03       9.847606619499e-01 
       1.507568477514e-03       1.039533012989e+00 
       1.595040487398e-03       1.095821004517e+00 
       1.685241075052e-03       1.153471965051e+00 
       1.777989849946e-03       1.212330513205e+00 
       1.873105833493e-03       1.272241835154e+00 
       1.970411241375e-03       1.333054380234e+00 
       2.069734401352e-03       1.394621826327e+00 
       2.170911854437e-03       1.456804606077e+00 
       2.273789735608e-03       1.519470888324e+00 
       2.378224553543e-03       1.582496988993e+00 
       2.484083493407e-03       1.645767735776e+00 
       2.591244358870e-03       1.709176152174e+00 
       2.699595254824e-03       1.772623731924e+00 
       2.809034094888e-03       1.836019517330e+00 
       2.919468000394e-03       1.899280162768e+00 
       3.030812641761e-03       1.962329111527e+00 
       3.142991559685e-03       2.025096703298e+00 
       3.255935492585e-03       2.087518791365e+00 
       3.369581728141e-03       2.149537243935e+00 
       3.483873490193e-03       2.211098892759e+00 
       3.598759367421e-03       2.272155983758e+00 
       3.714192786759e-03       2.332664147092e+00 
       3.830131532053e-03       2.392584159485e+00 
       3.946537306880e-03       2.451879677161e+00 
       4.063375339396e-03       2.510519071530e+00 
       4.180614026477e-03       2.568472495681e+00 
       4.298224614140e-03       2.625714801551e+00 
       4.416180911106e-03       2.682222529762e+00 
       4.534459032436e-03       2.737974732267e+00 
       4.653037170281e-03       2.792953827429e+00 
       4.771895388998e-03       2.847143443879e+00 
       4.891015442065e-03       2.900530757665e+00 
       5.010380608463e-03       2.953103657055e+00 
       5.129975546421e-03       3.004851483610e+00 
       5.249786162607e-03       3.055767300244e+00 
       5.369799495068e-03       3.105843735012e+00 
       5.490003608392e-03       3.155076979397e+00 
       5.610387499743e-03       3.203462716702e+00 
       5.730941014549e-03       3.250998220667e+00 
       5.851654770797e-03       3.297682788560e+00 
       5.972520090970e-03       3.343517106388e+00 
       6.093528940795e-03       3.388501426495e+00 
       6.214673874059e-03       3.432637927052e+00 
       6.335947982840e-03       3.475929960643e+00 
       6.457344852562e-03       3.518379948343e+00 
       6.578858521367e-03       3.559994064540e+00 
       6.700483443346e-03       3.600776872676e+00 
       6.822214455222e-03       3.640732836662e+00 
       6.944046746129e-03       3.679869358881e+00 
       7.065975830168e-03       3.718193476543e+00 
       7.187997521452e-03       3.755710303136e+00 
       7.310107911398e-03       3.792430311285e+00 
       7.432303348035e-03       3.828360636979e+00 
       7.554580417124e-03       3.863509148779e+00 
       7.676935924931e-03       3.897882469760e+00 
       7.799366882465e-03       3.931491233191e+00 
       7.921870491067e-03       3.964344217213e+00 
       8.044444129208e-03       3.996449935893e+00 
       8.167085340379e-03       4.027817801874e+00 
       8.289791821990e-03       4.058455883324e+00 
       8.412561415158e-03       4.088375017452e+00 
       8.535392095331e-03       4.117583567397e+00 
       8.658281963652e-03       4.146090534315e+00 
       8.781229239010e-03       4.173904404363e+00 
       8.904232250708e-03       4.201037015103e+00 
       9.027289431704e-03       4.227495007943e+00 
       9.150399312368e-03       4.253287599361e+00 
       9.273560514714e-03       4.278424575957e+00 
       9.396771747065e-03       4.302914304085e+00 
       9.520031799123e-03       4.326765060644e+00 
       9.643339537395e-03       4.349986742656e+00 
       9.766693900965e-03       4.372585470757e+00 
       9.890093897566e-03       4.394572053781e+00 
       1.001353859994e-02       4.415954580960e+00 
       1.013702714247e-02       4.436738782000e+00 
       1.026055871802e-02       4.456934053298e+00 
       1.038413257505e-02       4.476547689720e+00 
       1.050774801489e-02       4.495590545505e+00 
       1.063140438921e-02       4.514063271437e+00 
       1.075510109773e-02       4.531981143798e+00 
       1.087883758598e-02       4.549346250275e+00 
       1.100261334330e-02       4.566165347851e+00 
       1.112642790095e-02       4.582447130804e+00 
       1.125028083038e-02       4.598198916811e+00 
       1.137417174154e-02       4.613426146408e+00 
       1.149810028141e-02       4.628137186313e+00 
       1.162206613256e-02       4.642335178116e+00 
       1.174606901183e-02       4.656029636981e+00 
       1.187010866910e-02       4.669225823266e+00 
       1.199418488617e-02       4.681929737275e+00 
       1.211829747567e-02       4.694146572420e+00 
       1.224244628010e-02       4.705883165829e+00 
       1.236663117090e-02       4.717147429048e+00 
       1.249085204757e-02       4.727942112226e+00 
       1.261510883696e-02       4.738273277499e+00 
       1.273940149246e-02       4.748147895605e+00 
       1.286372999336e-02       4.757570776957e+00 
       1.298809434421e-02       4.766547737039e+00 
       1.311249457428e-02       4.775083207991e+00 
       1.323693073698e-02       4.783185477074e+00 
       1.336140290942e-02       4.790854241168e+00 
       1.348591119193e-02       4.798101760655e+00 
       1.361045570765e-02       4.804929425219e+00 
       1.373503660222e-02       4.811342884454e+00 
       1.385965404336e-02       4.817348687764e+00 
       1.398430822064e-02       4.822950191332e+00 
       1.410899934517e-02       4.828154141541e+00 
       1.423372764937e-02       4.832962702474e+00 
       1.435849338678e-02       4.837385615258e+00 
       1.448329683185e-02       4.841423415317e+00 
       1.460813827981e-02       4.845083823671e+00 
       1.473301804651e-02       4.848369124134e+00 
       1.485793646835e-02       4.851289673463e+00 
       1.498289390217e-02       4.853842869057e+00 
       1.510789072521e-02       4.856040986051e+00 
       1.523292733507e-02       4.857883423721e+00 
       1.535800414968e-02       4.859376250659e+00 
       1.548312160735e-02       4.860527969945e+00 
       1.560828016672e-02       4.861340686923e+00 
       1.573348030688e-02       4.861814443788e+00 
       1.585872252741e-02       4.861959418966e+00 
       1.598400734844e-02       4.861780616868e+00 
       1.610933531079e-02       4.861278692454e+00 
       1.623470697605e-02       4.860464067887e+00 
       1.636012292677e-02       4.859338436718e+00 
       1.648558376655e-02       4.857903125295e+00 
       1.661109012028e-02       4.856166837029e+00 
       1.673664263428e-02       4.854131320357e+00 
       1.686224197652e-02       4.851804633109e+00 
       1.698788883685e-02       4.849189094389e+00 
       1.711358392725e-02       4.846285198396e+00 
       1.723932798205e-02       4.843104127763e+00 
       1.736512175823e-02       4.839645105763e+00 
       1.749096603570e-02       4.835914439540e+00 
       1.761686161762e-02       4.831913591502e+00 
       1.774280933070e-02       4.827657384634e+00 
       1.786881002554e-02       4.823135248384e+00 
       1.799486457700e-02       4.818359242184e+00 
       1.812097388457e-02       4.813333071159e+00 
       1.824713887274e-02       4.808056615223e+00 
       1.837336049141e-02       4.802539379414e+00 
       1.849963971633e-02       4.796784203182e+00 
       1.862597754953e-02       4.790789236733e+00 
       1.875237501977e-02       4.784565392603e+00 
       1.887883318301e-02       4.778112854027e+00 
       1.900535312294e-02       4.771440327654e+00 
       1.913193595143e-02       4.764543986167e+00 
       1.925858280911e-02       4.757433756950e+00 
       1.938529486592e-02       4.750106774368e+00 
       1.951207332163e-02       4.742574168089e+00 
       1.963891940648e-02       4.734833242731e+00 
       1.976583438176e-02       4.726899286038e+00 
       1.989281954046e-02       4.718755718416e+00 
       2.001987620788e-02       4.710421784922e+00 
       2.014700574237e-02       4.701897783986e+00 
       2.027420953594e-02       4.693186660395e+00 
       2.040148901504e-02       4.684290862903e+00 
       2.052884564128e-02       4.675212222053e+00 
       2.065628091220e-02       4.665956977320e+00 
       2.078379636203e-02       4.656532486189e+00 
       2.091139356253e-02       4.646934177440e+00 
       2.103907412384e-02       4.637161083673e+00 
       2.116683969530e-02       4.627234900150e+00 
       2.129469196640e-02       4.617136916227e+00 
       2.142263266765e-02       4.606880798321e+00 
       2.155066357157e-02       4.596482475676e+00 
       2.167878649364e-02       4.585932389885e+00 
       2.180700329333e-02       4.575222554167e+00 
       2.193531587513e-02       4.564371277003e+00 
       2.206372618964e-02       4.553375793184e+00 
       2.219223623466e-02       4.542243462771e+00 
       2.232084805636e-02       4.530979873857e+00 
       2.244956375042e-02       4.519578116379e+00 
       2.257838546331e-02       4.508042271338e+00 
       2.270731539347e-02       4.496386936888e+00 
       2.283635579267e-02       4.484602763689e+00 
       2.296550896730e-02       4.472687171414e+00 
       2.309477727980e-02       4.460672792894e+00 
       2.322416315002e-02       4.448541345956e+00 
       2.335366905675e-02       4.436281076661e+00 
       2.348329753921e-02       4.423916519909e+00 
       2.361305119861e-02       4.411441209089e+00 
       2.374293269977e-02       4.398862716118e+00 
       2.387294477280e-02       4.386187980639e+00 
       2.400309021484e-02       4.373411091867e+00 
       2.413337189178e-02       4.360533551883e+00 
       2.426379274017e-02       4.347565543206e+00 
       2.439435576908e-02       4.334495546687e+00 
       2.452506406208e-02       4.321345777969e+00 
       2.465592077927e-02       4.308103461831e+00 
       2.478692915937e-02       4.294786421794e+00 
       2.491809252189e-02       4.281374495850e+00 
       2.504941426942e-02       4.267882060807e+00 
       2.518089788986e-02       4.254323215760e+00 
       2.531254695892e-02       4.240685444457e+00 
       2.544436514254e-02       4.226977682963e+00 
       2.557635619949e-02       4.213200031270e+00 
       2.570852398403e-02       4.199342198088e+00 
       2.584087244865e-02       4.185430501278e+00 
       2.597340564696e-02       4.171439404354e+00 
       2.610612773662e-02       4.157402380314e+00 
       2.623904298241e-02       4.143300912393e+00 
       2.637215575941e-02       4.129138353274e+00 
       2.650547055630e-02       4.114928762218e+00 
       2.663899197875e-02       4.100649327232e+00 
       2.677272475300e-02       4.086336417185e+00 
       2.690667372948e-02       4.071968461889e+00 
       2.704084388668e-02       4.057542181081e+00 
       2.717524033506e-02       4.043081632571e+00 
       2.730986832117e-02       4.028583534163e+00 
       2.744473323193e-02       4.014035914071e+00 
       2.757984059904e-02       3.999435432774e+00 
       2.771519610360e-02       3.984811587272e+00 
       2.785080558089e-02       3.970153635696e+00 
       2.798667502534e-02       3.955447628574e+00 
       2.812281059571e-02       3.940723249196e+00 
       2.825921862046e-02       3.925950071714e+00 
       2.839590560337e-02       3.911165187559e+00 
       2.853287822937e-02       3.896342097108e+00 
       2.867014337060e-02       3.881494675025e+00 
       2.880770809274e-02       3.866614119812e+00 
       2.894557966159e-02       3.851713727408e+00 
       2.908376554997e-02       3.836803064077e+00 
       2.922227344485e-02       3.821861475047e+00 
       2.936111125486e-02       3.806901448507e+00 
       2.950028711803e-02       3.791926776593e+00 
       2.963980940998e-02       3.776927953465e+00 
       2.977968675242e-02       3.761914066931e+00 
       2.991992802197e-02       3.746890528591e+00 
       3.006054235952e-02       3.731857689460e+00 
       3.020153917986e-02       3.716806706254e+00 
       3.034292818185e-02       3.701749501523e+00 
       3.048471935906e-02       3.686678106908e+00 
       3.062692301082e-02       3.671597248599e+00 
       3.076954975391e-02       3.656527764449e+00 
       3.091261053472e-02       3.641442776618e+00 
       3.105611664203e-02       3.626350031145e+00 
       3.120007972039e-02       3.611255703354e+00 
       3.134451178417e-02       3.596143579940e+00 
       3.148942523232e-02       3.581046984317e+00 
       3.163483286384e-02       3.565948624483e+00 
       3.178074789403e-02       3.550853673871e+00 
       3.192718397158e-02       3.535746178653e+00 
       3.207415519655e-02       3.520646384736e+00 
       3.222167613928e-02       3.505556849609e+00 
       3.236976186026e-02       3.490459281519e+00 
       3.251842793110e-02       3.475386534680e+00 
       3.266769045662e-02       3.460281867606e+00 
       3.281756609808e-02       3.445225506132e+00 
       3.296807209781e-02       3.430150867343e+00 
       3.311922630503e-02       3.415076564695e+00 
       3.327104720329e-02       3.400025053683e+00 
       3.342355393934e-02       3.384984250694e+00 
       3.357676635374e-02       3.369936254494e+00 
       3.373070501315e-02       3.354911249523e+00 
       3.388539124463e-02       3.339892506250e+00 
       3.404084717188e-02       3.324879814136e+00 
       3.419709575366e-02       3.309883716033e+00 
       3.435416082463e-02       3.294895108290e+00 
       3.451206713858e-02       3.279920940114e+00 
       3.467084041444e-02       3.264949868112e+00 
       3.483050738512e-02       3.249978847990e+00 
       3.499109584951e-02       3.235029557688e+00 
       3.515263472782e-02       3.220111062598e+00 
       3.531515412053e-02       3.205193470986e+00 
       3.547868537122e-02       3.190278365066e+00 
       3.564326113364e-02       3.175382564614e+00 
       3.580891544335e-02       3.160499275689e+00 
       3.597568379423e-02       3.145618112541e+00 
       3.614360322038e-02       3.130771129507e+00 
       3.631271238380e-02       3.115898660087e+00 
       3.648305166828e-02       3.101066394204e+00 
       3.665466328025e-02       3.086248167440e+00 
       3.682759135694e-02       3.071439341636e+00 
       3.700188208264e-02       3.056637489128e+00 
       3.717758381384e-02       3.041843967143e+00 
       3.735474721393e-02       3.027056893597e+00 
       3.753342539844e-02       3.012290342980e+00 
       3.771367409180e-02       2.997510003385e+00 
       3.789555179669e-02       2.982762201979e+00 
       3.807911997726e-02       2.968006949916e+00 
       3.826444325751e-02       2.953270566694e+00 
       3.845158963647e-02       2.938538732665e+00 
       3.864063072175e-02       2.923811626243e+00 
       3.883164198345e-02       2.909088430109e+00 
       3.902470303062e-02       2.894365205894e+00 
       3.921989791253e-02       2.879647394004e+00 
       3.941731544758e-02       2.864929065271e+00 
       3.961704958289e-02       2.850210634882e+00 
       3.981919978798e-02       2.835496121432e+00 
       4.002387148648e-02       2.820782295392e+00 
       4.023117653032e-02       2.806055413716e+00 
       4.044123372141e-02       2.791326906926e+00 
       4.065416938658e-02       2.776592637827e+00 
       4.087011801240e-02       2.761850943806e+00 
       4.108922294733e-02       2.747095258596e+00 
       4.131163717982e-02       2.732324934690e+00 
       4.153752420241e-02       2.717543646277e+00 
       4.176705897322e-02       2.702749865481e+00 
       4.200042898802e-02       2.687929386657e+00 
       4.223783547839e-02       2.673091936924e+00 
       4.247949475379e-02       2.658223402229e+00 
       4.272563970839e-02       2.643332806858e+00 
       4.297652151713e-02       2.628409558793e+00 
       4.323241154967e-02       2.613446716924e+00 
       4.349360353592e-02       2.598448321026e+00 
       4.376041602319e-02       2.583406177475e+00 
       4.403319517213e-02       2.568315723973e+00 
       4.431231794788e-02       2.553176914983e+00 
       4.459819577357e-02       2.537978917341e+00 
       4.489127872701e-02       2.522717875563e+00 
       4.519206037738e-02       2.507383073536e+00 
       4.550108337953e-02       2.491982005400e+00 
       4.581894596815e-02       2.476502632770e+00 
       4.614630952536e-02       2.460922228913e+00 
       4.648390743429e-02       2.445231214058e+00 
       4.683255547970e-02       2.429449607207e+00 
       4.719316411816e-02       2.413544944637e+00 
       4.756675301773e-02       2.397499667636e+00 
       4.795446836503e-02       2.381333529716e+00 
       4.835760356241e-02       2.365006409520e+00 
       4.877762409663e-02       2.348496977877e+00 
       4.921619756285e-02       2.331781828413e+00 
       4.967523008562e-02       2.314825575521e+00 
       5.015691070604e-02       2.297636332765e+00 
       5.066376571717e-02       2.280157185063e+00 
       5.119872544391e-02       2.262353877191e+00 
       5.176520658853e-02       2.244192294526e+00 
       5.236721399178e-02       2.225605720807e+00 
       5.300946644312e-02       2.206521617397e+00 
       5.369755187007e-02       2.186854059951e+00 
       5.443811751592e-02       2.166498278386e+00 
       5.523909986870e-02       2.145307474955e+00 
       5.610999570581e-02       2.123095273478e+00 
       5.706216694303e-02       2.099607980849e+00 
       5.810915312358e-02       2.074531000582e+00 
