# dimensionless total lensed [l(l+1)/2pi] C_l's
# for l=2 to 2500, i.e. number of multipoles equal to 2499
#
# -> if you prefer output in CAMB/HealPix/LensPix units/order, set 'format' to 'camb' in input file
# -> if you don't want to see such a header, set 'headers' to 'no' in input file
# -> for CMB lensing (phi), these are C_l^phi-phi for the lensing potential.
#    Remember the conversion factors:
#    C_l^dd (deflection) = l(l+1) C_l^phi-phi
#    C_l^gg (shear/convergence) = 1/4 (l(l+1))^2 C_l^phi-phi
#
# 1:l     2:TT                     3:EE                     4:TE                     5:BB                     6:phiphi                 7:TPhi                   8:Ephi               
    2       1.513675859762e-10       4.794267466842e-15       3.799651518587e-13       2.253267820884e-19       8.309111092536e-09       5.059223598397e-10      -2.012701997375e-12 
    3       1.417648112394e-10       6.054755300040e-15       4.281441181740e-13       4.507534873727e-19       5.129914649479e-09       3.573141687614e-10      -1.512250576532e-12 
    4       1.331057091954e-10       5.149085165905e-15       3.998254486433e-13       7.514757660928e-19       3.573489420364e-09       2.695857022862e-10      -9.768129853416e-13 
    5       1.266688943746e-10       3.373406017832e-15       3.391826366525e-13       1.127621073479e-18       2.668801231752e-09       2.123179037747e-10      -5.310398165275e-13 
    6       1.222189283396e-10       1.856601119741e-15       2.715929963626e-13       1.579343903625e-18       2.084732173066e-09       1.723388267216e-10      -2.072630302898e-13 
    7       1.192689271334e-10       9.992216698644e-16       2.117267437735e-13       2.106822795673e-18       1.680674799653e-09       1.430952091864e-10      -5.088637209578e-15 
    8       1.174600945391e-10       6.511345932205e-16       1.659101300886e-13       2.710256953518e-18       1.387231996445e-09       1.209800207240e-10       9.391166726888e-14 
    9       1.164938605247e-10       5.242361162192e-16       1.354200844903e-13       3.389862581884e-18       1.166735565415e-09       1.038424643336e-10       1.170814349707e-13 
   10       1.161227651214e-10       4.430261290053e-16       1.186550663126e-13       4.145869048692e-18       9.966577912105e-10       9.028243644727e-11       9.396098473218e-14 
   11       1.162504703946e-10       3.698661634201e-16       1.125832754020e-13       4.978514986827e-18       8.432654560877e-10       7.968771254813e-11       5.145348180427e-14 
   12       1.167311015376e-10       3.230878914447e-16       1.137786639282e-13       5.888044447515e-18       7.367342717748e-10       7.043793798985e-11       8.506191310409e-15 
   13       1.174949243069e-10       3.112485617143e-16       1.192673805735e-13       6.874703212765e-18       6.492818625964e-10       6.289519091441e-11      -2.257383766519e-14 
   14       1.184690170827e-10       3.231224752751e-16       1.268657806356e-13       7.938735365808e-18       5.765210937271e-10       5.630869204960e-11      -3.808005120916e-14 
   15       1.196510186239e-10       3.466924062602e-16       1.351554288861e-13       9.080380206537e-18       5.152758073553e-10       5.077200522785e-11      -3.911809617528e-14 
   16       1.209813077144e-10       3.813628830334e-16       1.435323228412e-13       1.029986958421e-17       4.632039002961e-10       4.602220600797e-11      -3.059066638141e-14 
   17       1.224496030507e-10       4.337631608978e-16       1.518981121683e-13       1.159742570250e-17       4.185360497868e-10       4.189411959495e-11      -1.835748314118e-14 
   18       1.240078647977e-10       5.088302104416e-16       1.604933308891e-13       1.297325922492e-17       3.797688987020e-10       3.827166287544e-11      -7.624696734566e-15 
   19       1.256676127051e-10       6.063176954959e-16       1.695587097624e-13       1.442756915602e-17       3.462840509818e-10       3.511517780962e-11      -8.584241595415e-16 
   20       1.274076355356e-10       7.236792163003e-16       1.792743488824e-13       1.596053989437e-17       3.167938540289e-10       3.233087931670e-11       6.145788679713e-16 
   21       1.292341703580e-10       8.603106814890e-16       1.895937639405e-13       1.757234430013e-17       2.908351036705e-10       2.986732959651e-11      -2.207689862596e-15 
   22       1.311287926703e-10       1.015863624473e-15       2.002951434652e-13       1.926314044515e-17       2.677859241650e-10       2.764795912078e-11      -7.115703092268e-15 
   23       1.330895269238e-10       1.190105109264e-15       2.109390450231e-13       2.103307620852e-17       2.473294521496e-10       2.565013265346e-11      -1.224114775516e-14 
   24       1.350993085068e-10       1.382757830276e-15       2.209824181756e-13       2.288228597307e-17       2.289931536552e-10       2.384624039711e-11      -1.575986213013e-14 
   25       1.371690042032e-10       1.594366522211e-15       2.301544020216e-13       2.481089699700e-17       2.125613000190e-10       2.222876385340e-11      -1.704085324426e-14 
   26       1.392992043751e-10       1.825941251308e-15       2.382794145609e-13       2.681902542864e-17       1.977363355705e-10       2.077802124264e-11      -1.603199762505e-14 
   27       1.414757337641e-10       2.079539158708e-15       2.452899047359e-13       2.890678235096e-17       1.843403053377e-10       1.946567838405e-11      -1.354572985117e-14 
   28       1.436717748391e-10       2.357532195720e-15       2.511804765324e-13       3.107427106926e-17       1.721421736072e-10       1.825375308735e-11      -1.074021890269e-14 
   29       1.458974936990e-10       2.661366387152e-15       2.560165814991e-13       3.332159659178e-17       1.610795759165e-10       1.714107771093e-11      -8.251255902402e-15 
   30       1.481638935527e-10       2.992184658812e-15       2.599214910209e-13       3.564885795281e-17       1.510336724224e-10       1.612943383352e-11      -6.645509510253e-15 
   31       1.504709614622e-10       3.351059706853e-15       2.630202934799e-13       3.805614817277e-17       1.417994965518e-10       1.521103047815e-11      -6.413750498101e-15 
   32       1.528210846423e-10       3.738910337242e-15       2.652573890574e-13       4.054356567438e-17       1.333292842526e-10       1.437545709195e-11      -7.275399515571e-15 
   33       1.552078127827e-10       4.156539263684e-15       2.665094159483e-13       4.311120713716e-17       1.255630560558e-10       1.360336961305e-11      -8.596899502265e-15 
   34       1.576178717934e-10       4.604702439975e-15       2.666352087235e-13       4.575916602630e-17       1.183920466460e-10       1.287179355538e-11      -9.698619546703e-15 
   35       1.600557110684e-10       5.084306577539e-15       2.654924802265e-13       4.848753745734e-17       1.117794929492e-10       1.218263624249e-11      -1.034742351955e-14 
   36       1.625257792194e-10       5.596272571815e-15       2.629242644070e-13       5.129641533577e-17       1.056722930587e-10       1.154332198638e-11      -1.042980989795e-14 
   37       1.650275320962e-10       6.141466593945e-15       2.587869627402e-13       5.418589016285e-17       9.999090743036e-11       1.095812548217e-11      -9.880044955944e-15 
   38       1.675634278096e-10       6.720653642574e-15       2.530667240674e-13       5.715604517553e-17       9.472061006189e-11       1.042515973019e-11      -8.879943500741e-15 
   39       1.701323431908e-10       7.334521700137e-15       2.458022096989e-13       6.020695918330e-17       8.984463541281e-11       9.937836716898e-12      -7.729936044485e-15 
   40       1.727265953456e-10       7.983688429549e-15       2.370552370040e-13       6.333870774903e-17       8.531642251721e-11       9.485222038885e-12      -6.801422701555e-15 
   41       1.753362772858e-10       8.668744083903e-15       2.268878188273e-13       6.655135943125e-17       8.107582275927e-11       9.055333236045e-12      -6.434395521785e-15 
   42       1.779655364526e-10       9.390407802269e-15       2.152809211086e-13       6.984496276693e-17       7.711031535215e-11       8.647173858666e-12      -6.579335043574e-15 
   43       1.806204932245e-10       1.014941465483e-14       2.021916185295e-13       7.321955524223e-17       7.340934592352e-11       8.262023350098e-12      -7.046362380251e-15 
   44       1.833044017620e-10       1.094647144693e-14       1.875749072632e-13       7.667516664821e-17       6.994595840227e-11       7.900024400705e-12      -7.599315614708e-15 
   45       1.860183469647e-10       1.178221857494e-14       1.713842349762e-13       8.021181454030e-17       6.668641334204e-11       7.560459666653e-12      -8.011779668299e-15 
   46       1.887643197199e-10       1.265710490902e-14       1.535739307344e-13       8.382948936466e-17       6.362554804684e-11       7.242919937605e-12      -8.261801344171e-15 
   47       1.915425298178e-10       1.357147340191e-14       1.340970316550e-13       8.752816462062e-17       6.075976720319e-11       6.946312423905e-12      -8.390585779375e-15 
   48       1.943502289558e-10       1.452559147436e-14       1.129043158975e-13       9.130780046209e-17       5.807637818399e-11       6.668435066288e-12      -8.449250587731e-15 
   49       1.971814565741e-10       1.551964765308e-14       8.994407285918e-14       9.516834328950e-17       5.555291476293e-11       6.405896748234e-12      -8.499393035906e-15 
   50       2.000298002241e-10       1.655377944591e-14       6.516822011940e-14       9.910972534146e-17       5.316389594048e-11       6.155102711933e-12      -8.599649526049e-15 
   51       2.028981496557e-10       1.762817368723e-14       3.855314483549e-14       1.031318642859e-16       5.090483422895e-11       5.915711246590e-12      -8.759757229598e-15 
   52       2.057911510282e-10       1.874298761863e-14       1.008412227836e-14       1.072346628124e-16       4.877357514388e-11       5.687977361256e-12      -8.975003401892e-15 
   53       2.087123141423e-10       1.989831818511e-14      -2.025046924154e-14       1.114180082247e-16       4.676311300893e-11       5.471740630737e-12      -9.239053409945e-15 
   54       2.116639001362e-10       2.109420014303e-14      -5.245907950739e-14       1.156817720322e-16       4.486126455784e-11       5.266395535175e-12      -9.543858722951e-15 
   55       2.146472254611e-10       2.233061870868e-14      -8.654752233515e-14       1.200258192387e-16       4.305438050751e-11       5.071151860112e-12      -9.879215631879e-15 
   56       2.176639195153e-10       2.360755551829e-14      -1.225208970684e-13       1.244500398443e-16       4.134030775561e-11       4.885959598713e-12      -1.023152382112e-14 
   57       2.207147827240e-10       2.492495077132e-14      -1.603820237984e-13       1.289543244542e-16       3.971807555938e-11       4.710761862561e-12      -1.058455823754e-14 
   58       2.237993036381e-10       2.628268839350e-14      -2.001308360630e-13       1.335385552384e-16       3.818397429454e-11       4.545206992091e-12      -1.091968802282e-14 
   59       2.269155628496e-10       2.768059471117e-14      -2.417643355432e-13       1.382026059016e-16       3.673138638079e-11       4.388630197224e-12      -1.121577089605e-14 
   60       2.300601369055e-10       2.911843712581e-14      -2.852765467607e-13       1.429463416524e-16       3.535061720740e-11       4.240035198015e-12      -1.144904753624e-14 
   61       2.332295560055e-10       3.059587213214e-14      -3.306593253228e-13       1.477696364356e-16       3.403158352988e-11       4.098366693281e-12      -1.159872112889e-14 
   62       2.364252768146e-10       3.211227873679e-14      -3.779050971440e-13       1.526724292174e-16       3.277296630972e-11       3.963440767939e-12      -1.166539843120e-14 
   63       2.396496604266e-10       3.366688512628e-14      -4.270046564795e-13       1.576546803372e-16       3.157482165191e-11       3.835191697000e-12      -1.165661941967e-14 
   64       2.429044712179e-10       3.525881314913e-14      -4.779463487727e-13       1.627163558680e-16       3.043582776659e-11       3.713390595284e-12      -1.158161067301e-14 
   65       2.461908300633e-10       3.688707538300e-14      -5.307160524347e-13       1.678574281333e-16       2.935320655997e-11       3.597636285814e-12      -1.145136014058e-14 
   66       2.495091675508e-10       3.855057220188e-14      -5.852971606242e-13       1.730778762250e-16       2.832264522529e-11       3.487346168211e-12      -1.127869191094e-14 
   67       2.528591771963e-10       4.024808884321e-14      -6.416705630262e-13       1.783776865202e-16       2.733821783372e-11       3.381747087086e-12      -1.107834098035e-14 
   68       2.562403584840e-10       4.197840412973e-14      -6.998146254495e-13       1.837568609025e-16       2.639396556243e-11       3.280078286313e-12      -1.086440814114e-14 
   69       2.596538783401e-10       4.374064877233e-14      -7.597051645450e-13       1.892154422019e-16       2.548918446443e-11       3.182268437594e-12      -1.064195866746e-14 
   70       2.631010045286e-10       4.553401473372e-14      -8.213154352085e-13       1.947534948626e-16       2.462407320556e-11       3.088380021601e-12      -1.041384779792e-14 
   71       2.665825180683e-10       4.735764992159e-14      -8.846161143619e-13       2.003710983976e-16       2.379813388453e-11       2.998405739120e-12      -1.018319761927e-14 
   72       2.700986815321e-10       4.921065811148e-14      -9.495752826763e-13       2.060683481030e-16       2.301013604429e-11       2.912264803642e-12      -9.953404830287e-15 
   73       2.736492073478e-10       5.109209886950e-14      -1.016158406296e-12       2.118453557724e-16       2.225808068329e-11       2.829799233940e-12      -9.728148505691e-15 
   74       2.772332260973e-10       5.300098747511e-14      -1.084328318563e-12       2.177022504115e-16       2.153916426683e-11       2.750770146665e-12      -9.511397860034e-15 
   75       2.808492548175e-10       5.493629484393e-14      -1.154045201737e-12       2.236391789525e-16       2.084974273839e-11       2.674854048926e-12      -9.307420011608e-15 
   76       2.844958519271e-10       5.689690203336e-14      -1.225268113862e-12       2.296562973348e-16       2.018623461471e-11       2.601727088700e-12      -9.120016995969e-15 
   77       2.881737899624e-10       5.888145435260e-14      -1.297959931180e-12       2.357537402911e-16       1.954809995026e-11       2.531343738321e-12      -8.950059015477e-15 
   78       2.918842232987e-10       6.088848038496e-14      -1.372083277973e-12       2.419316473243e-16       1.893534174099e-11       2.463702430754e-12      -8.797513381467e-15 
   79       2.956280193376e-10       6.291643405271e-14      -1.447599074569e-12       2.481901723603e-16       1.834759857118e-11       2.398760237182e-12      -8.662167448108e-15 
   80       2.994057408863e-10       6.496369360845e-14      -1.524466550756e-12       2.545294842656e-16       1.778412788144e-11       2.336430963240e-12      -8.543620571437e-15 
   81       3.032176285380e-10       6.702856062667e-14      -1.602643259181e-12       2.609497673634e-16       1.724378923669e-11       2.276583245246e-12      -8.441276068403e-15 
   82       3.070635830513e-10       6.910925899514e-14      -1.682085088767e-12       2.674512219511e-16       1.672502759414e-11       2.219038646431e-12      -8.354333175908e-15 
   83       3.109431477305e-10       7.120393390639e-14      -1.762746278115e-12       2.740340648171e-16       1.622585657133e-11       2.163569753179e-12      -8.281779009848e-15 
   84       3.148558048304e-10       7.331071184347e-14      -1.844578820317e-12       2.806985266460e-16       1.574434023846e-11       2.109955095878e-12      -8.222348991667e-15 
   85       3.188019598249e-10       7.542789417219e-14      -1.927530534649e-12       2.874448426101e-16       1.528016691665e-11       2.058158542781e-12      -8.174418203756e-15 
   86       3.227820887625e-10       7.755379394249e-14      -2.011546698303e-12       2.942732611586e-16       1.483330681790e-11       2.008176293659e-12      -8.136077196636e-15 
   87       3.267964265885e-10       7.968667776396e-14      -2.096570629691e-12       3.011840474483e-16       1.440352848752e-11       1.959981764628e-12      -8.105153475484e-15 
   88       3.308449548026e-10       8.182476582241e-14      -2.182543691628e-12       3.081774838078e-16       1.399039045073e-11       1.913524639416e-12      -8.079202929214e-15 
   89       3.349273891163e-10       8.396623189644e-14      -2.269405294509e-12       3.152538702026e-16       1.359323285920e-11       1.868729920634e-12      -8.055501259557e-15 
   90       3.390431671111e-10       8.610920337404e-14      -2.357092899489e-12       3.224135246994e-16       1.321116913761e-11       1.825496981041e-12      -8.031035410151e-15 
   91       3.431914358955e-10       8.825176126918e-14      -2.445542021663e-12       3.296567839304e-16       1.284307763018e-11       1.783698614814e-12      -8.002494995618e-15 
   92       3.473710397631e-10       9.039194023831e-14      -2.534686233242e-12       3.369840035587e-16       1.248759324726e-11       1.743180088816e-12      -7.966263730649e-15 
   93       3.515808665052e-10       9.252776180802e-14      -2.624458378812e-12       3.443955691362e-16       1.214343072281e-11       1.703797628677e-12      -7.919274358115e-15 
   94       3.558209727386e-10       9.465733973817e-14      -2.714794423250e-12       3.518919295395e-16       1.181042814511e-11       1.665542558993e-12      -7.861739134198e-15 
   95       3.600916057951e-10       9.677879060977e-14      -2.805630191106e-12       3.594735694452e-16       1.148864565874e-11       1.628434166586e-12      -7.794816072497e-15 
   96       3.643928528265e-10       9.889020249201e-14      -2.896900225645e-12       3.671409999835e-16       1.117804408740e-11       1.592481527331e-12      -7.719785274284e-15 
   97       3.687246333860e-10       1.009896354148e-13      -2.988537808662e-12       3.748947593449e-16       1.087848113245e-11       1.557683098742e-12      -7.638052210694e-15 
   98       3.730866920087e-10       1.030751218412e-13      -3.080474980305e-12       3.827354133879e-16       1.058970757139e-11       1.524026312552e-12      -7.551151004923e-15 
   99       3.774785907924e-10       1.051446671397e-13      -3.172642558887e-12       3.906635562463e-16       1.031136345642e-11       1.491487167295e-12      -7.460747714414e-15 
  100       3.818997019786e-10       1.071962500572e-13      -3.264970160705e-12       3.986798109361e-16       1.004297431298e-11       1.460029820897e-12      -7.368643613056e-15 
  101       3.863492005331e-10       1.092278231907e-13      -3.357386219859e-12       4.067848299632e-16       9.783947338195e-12       1.429606183251e-12      -7.276778473372e-15 
  102       3.908260567272e-10       1.112373134604e-13      -3.449818008067e-12       4.149792959305e-16       9.533567599489e-12       1.400155508805e-12      -7.187233848714e-15 
  103       3.953290287180e-10       1.132226225820e-13      -3.542191654485e-12       4.232639221452e-16       9.290994233052e-12       1.371603989148e-12      -7.102236355456e-15 
  104       3.998569182615e-10       1.151816786312e-13      -3.634432718620e-12       4.316394298388e-16       9.055450689615e-12       1.343881598637e-12      -7.023673305162e-15 
  105       4.044093931697e-10       1.171125976542e-13      -3.726467954539e-12       4.401064750146e-16       8.826832928090e-12       1.316976100457e-12      -6.951558013629e-15 
  106       4.089862626412e-10       1.190135448710e-13      -3.818223823032e-12       4.486657128046e-16       8.605176675456e-12       1.290885610419e-12      -6.885362331302e-15 
  107       4.135872195777e-10       1.208826865540e-13      -3.909625985385e-12       4.573178203204e-16       8.390469067168e-12       1.265601780182e-12      -6.824483728868e-15 
