# dimensionless total lensed [l(l+1)/2pi] C_l's
# for l=2 to 2500, i.e. number of multipoles equal to 2499
#
# -> if you prefer output in CAMB/HealPix/LensPix units/order, set 'format' to 'camb' in input file
# -> if you don't want to see such a header, set 'headers' to 'no' in input file
# -> for CMB lensing (phi), these are C_l^phi-phi for the lensing potential.
#    Remember the conversion factors:
#    C_l^dd (deflection) = l(l+1) C_l^phi-phi
#    C_l^gg (shear/convergence) = 1/4 (l(l+1))^2 C_l^phi-phi
#
# 1:l     2:TT                     3:EE                     4:TE                     5:BB                     6:phiphi                 7:TPhi                   8:Ephi               
    2       1.513654119983e-10       4.794161774541e-15       3.799557268002e-13       2.253208959294e-19       8.309173858264e-09       5.059238044643e-10      -2.012670012542e-12 
    3       1.417619177602e-10       6.054629454931e-15       4.281305290365e-13       4.507417261570e-19       5.129975278510e-09       3.573162032045e-10      -1.512229780754e-12 
    4       1.331030472046e-10       5.148999042906e-15       3.998152520308e-13       7.514561881838e-19       3.573542725468e-09       2.695875889919e-10      -9.768013099982e-13 
    5       1.266667722846e-10       3.373360148539e-15       3.391769294460e-13       1.127591750525e-18       2.668847536730e-09       2.123196655735e-10      -5.310333638255e-13 
    6       1.222172343039e-10       1.856581798567e-15       2.715898418399e-13       1.579302922631e-18       2.084772853960e-09       1.723405632004e-10      -2.072597756315e-13 
    7       1.192673055298e-10       9.992170750830e-16       2.117252116423e-13       2.106768260330e-18       1.680710530819e-09       1.430969339042e-10      -5.087569425767e-15 
    8       1.174584991881e-10       6.511358424389e-16       1.659096991759e-13       2.710186984711e-18       1.387263653674e-09       1.209817208462e-10       9.391129864527e-14 
    9       1.164923248337e-10       5.242389606575e-16       1.354202532547e-13       3.389775317352e-18       1.166764304205e-09       1.038441732845e-10       1.170803153053e-13 
   10       1.161211690482e-10       4.430298202098e-16       1.186558370259e-13       4.145762641853e-18       9.966841832984e-10       9.028417836497e-11       9.395969025856e-14 
   11       1.162488651489e-10       3.698711571818e-16       1.125845778952e-13       4.978387604796e-18       8.432903440614e-10       7.968947369968e-11       5.145241826401e-14 
   12       1.167294853670e-10       3.230949212247e-16       1.137804287655e-13       5.887894268419e-18       7.367571780753e-10       7.043956833859e-11       8.505538757535e-15 
   13       1.174933016589e-10       3.112582896296e-16       1.192695887081e-13       6.874528422462e-18       6.493031157951e-10       6.289667925563e-11      -2.257405935560e-14 
   14       1.184674524955e-10       3.231356599578e-16       1.268684524082e-13       7.938534154148e-18       5.765407327822e-10       5.631016635928e-11      -3.807997460705e-14 
   15       1.196495369240e-10       3.467096461361e-16       1.351586096911e-13       9.080150763346e-18       5.152940540413e-10       5.077343957350e-11      -3.911788867846e-14 
   16       1.209798180706e-10       3.813848884399e-16       1.435358655412e-13       1.029961009516e-17       4.632209195861e-10       4.602348393701e-11      -3.059051009696e-14 
   17       1.224481727790e-10       4.337912690483e-16       1.519020406645e-13       1.159713434510e-17       4.185519108770e-10       4.189523978879e-11      -1.835749484435e-14 
   18       1.240064402522e-10       5.088650139025e-16       1.604975584948e-13       1.297293416462e-17       3.797836939074e-10       3.827274520726e-11      -7.624942873752e-15 
   19       1.256661632921e-10       6.063601738477e-16       1.695631996338e-13       1.442720854328e-17       3.462978827635e-10       3.511625072391e-11      -8.588749178464e-16 
   20       1.274062305997e-10       7.237311970526e-16       1.792791952834e-13       1.596014186129e-17       3.168068004472e-10       3.233182440865e-11       6.140654232557e-16 
   21       1.292328340286e-10       8.603737194916e-16       1.895989794961e-13       1.757190695916e-17       2.908472305386e-10       2.986811568015e-11      -2.208150320797e-15 
   22       1.311274620215e-10       1.015938637917e-15       2.003005911328e-13       1.926266188721e-17       2.677972790385e-10       2.764870497912e-11      -7.116074940095e-15 
   23       1.330881610442e-10       1.190193079982e-15       2.109445802725e-13       2.103255450348e-17       2.473400865272e-10       2.565089584254e-11      -1.224143039420e-14 
   24       1.350979238694e-10       1.382860090735e-15       2.209879464324e-13       2.288171916957e-17       2.290031227966e-10       2.384695680730e-11      -1.576007314373e-14 
   25       1.371676254839e-10       1.594484840602e-15       2.301598875685e-13       2.481028312471e-17       2.125706587610e-10       2.222939159545e-11      -1.704099845792e-14 
   26       1.392978473495e-10       1.826077767445e-15       2.382848729227e-13       2.681836249987e-17       1.977451316625e-10       2.077858114909e-11      -1.603206715547e-14 
   27       1.414744029456e-10       2.079695704101e-15       2.452953060624e-13       2.890606836420e-17       1.843485823441e-10       1.946618341860e-11      -1.354574030373e-14 
   28       1.436704634877e-10       2.357710134855e-15       2.511857269498e-13       3.107350401224e-17       1.721499688169e-10       1.825419133151e-11      -1.074022332471e-14 
   29       1.458961951963e-10       2.661567255463e-15       2.560216230572e-13       3.332077444611e-17       1.610869266276e-10       1.714145425208e-11      -8.251306537393e-15 
   30       1.481626059735e-10       2.992410421737e-15       2.599263459777e-13       3.564797869799e-17       1.510406142255e-10       1.612978901494e-11      -6.645642534502e-15 
   31       1.504696892318e-10       3.351312692633e-15       2.630250531291e-13       3.805520979005e-17       1.418060599422e-10       1.521143218262e-11      -6.413979853748e-15 
   32       1.528198397067e-10       3.739192566534e-15       2.652620869734e-13       4.054256615012e-17       1.333354977205e-10       1.437593551753e-11      -7.275711235616e-15 
   33       1.552066163320e-10       4.156852143653e-15       2.665139711871e-13       4.311014446719e-17       1.255689444218e-10       1.360388654588e-11      -8.597244831208e-15 
   34       1.576167516531e-10       4.605046806221e-15       2.666394342054e-13       4.575803821968e-17       1.183976291867e-10       1.287224875010e-11      -9.698921795578e-15 
   35       1.600546831207e-10       5.084683443328e-15       2.654962213101e-13       4.848634253636e-17       1.117847878848e-10       1.218295544457e-11      -1.034763486070e-14 
   36       1.625248388699e-10       5.596683423416e-15       2.629274538819e-13       5.129515133896e-17       1.056773175158e-10       1.154349270768e-11      -1.042993661627e-14 
   37       1.650266553804e-10       6.141913407118e-15       2.587896140124e-13       5.418455514670e-17       9.999567646321e-11       1.095819632055e-11      -9.880145652279e-15 
   38       1.675625922197e-10       6.721138551981e-15       2.530688245577e-13       5.715463720750e-17       9.472513881568e-11       1.042518468383e-11      -8.880076517660e-15 
   39       1.701315353094e-10       7.335046906107e-15       2.458036809584e-13       6.020547634093e-17       8.984893896169e-11       9.937856637733e-12      -7.730141024580e-15 
   40       1.727258134254e-10       7.984256197679e-15       2.370559203714e-13       6.333714812146e-17       8.532051472927e-11       9.485260438990e-12      -6.801715281058e-15 
   41       1.753355306475e-10       8.669356552934e-15       2.268874887681e-13       6.654972111744e-17       8.107971572672e-11       9.055395600025e-12      -6.434767130473e-15 
   42       1.779648336653e-10       9.391066142156e-15       2.152793946164e-13       6.984324386255e-17       7.711402098689e-11       8.647259547991e-12      -6.579770883594e-15 
   43       1.806198381474e-10       1.015011866279e-14       2.021887982101e-13       7.321775383432e-17       7.341287591868e-11       8.262128523540e-12      -7.046846541110e-15 
   44       1.833037925750e-10       1.094721930366e-14       1.875707995688e-13       7.667328081270e-17       6.994932352991e-11       7.900141460728e-12      -7.599831251847e-15 
   45       1.860177765713e-10       1.178300693058e-14       1.713789441083e-13       8.020984233759e-17       6.668962312133e-11       7.560577867947e-12      -8.012309807296e-15 
   46       1.887637808882e-10       1.265793010705e-14       1.535675683876e-13       8.382742882890e-17       6.362861179049e-11       7.243029966820e-12      -8.262331741283e-15 
   47       1.915420169062e-10       1.357233188266e-14       1.340896875570e-13       8.752601375317e-17       6.076269400033e-11       6.946408144550e-12      -8.391106371953e-15 
   48       1.943497383592e-10       1.452647987139e-14       1.128960511575e-13       9.130555722628e-17       5.807917645944e-11       6.668514212395e-12      -8.449756442920e-15 
   49       1.971809871970e-10       1.552056289604e-14       8.993491291168e-14       9.516600560518e-17       5.555559180384e-11       6.405961656776e-12      -8.499885352807e-15 
   50       2.000293533595e-10       1.655471884741e-14       6.515815443094e-14       9.910729108117e-17       5.316645776256e-11       6.155159867515e-12      -8.600135014605e-15 
   51       2.028977268258e-10       1.762913496190e-14       3.854215000964e-14       1.031293312772e-16       5.090728664545e-11       5.915766793044e-12      -8.760241976226e-15 
   52       2.057907533560e-10       1.874396896281e-14       1.007216741294e-14       1.072320288354e-16       4.877592390196e-11       5.688035618572e-12      -8.975490844256e-15 
   53       2.087119422950e-10       1.989931838254e-14      -2.026342387815e-14       1.114152710074e-16       4.676536356772e-11       5.471803724257e-12      -9.239543832792e-15 
   54       2.116635542653e-10       2.109521867597e-14      -5.247308386807e-14       1.156789292457e-16       4.486342185143e-11       5.266463005829e-12      -9.544348728506e-15 
   55       2.146469051054e-10       2.233165568886e-14      -8.656263323860e-14       1.200228684988e-16       4.305644885773e-11       5.071220836005e-12      -9.879698403289e-15 
   56       2.176636233830e-10       2.360861101243e-14      -1.225371590646e-13       1.244469787341e-16       4.134229131244e-11       4.886026857584e-12      -1.023199205411e-14 
   57       2.207145085618e-10       2.492602459120e-14      -1.603994620129e-13       1.289511505308e-16       3.971997831839e-11       4.710824439885e-12      -1.058500502211e-14 
   58       2.237990481290e-10       2.628378005657e-14      -2.001494533954e-13       1.335352660331e-16       3.818579995247e-11       4.545262253556e-12      -1.092010697083e-14 
   59       2.269153215069e-10       2.768170339940e-14      -2.417841097476e-13       1.381991989205e-16       3.673313818249e-11       4.388675914865e-12      -1.121615627518e-14 
   60       2.300599039633e-10       2.911956164271e-14      -2.852974274053e-13       1.429428143775e-16       3.535229778410e-11       4.240069629977e-12      -1.144939441044e-14 
   61       2.332293248199e-10       3.059701094912e-14      -3.306812376599e-13       1.477659863308e-16       3.403319491281e-11       4.098388627091e-12      -1.159902550608e-14 
   62       2.364250419391e-10       3.211343033518e-14      -3.779279687930e-13       1.526686537531e-16       3.277451053530e-11       3.963449436486e-12      -1.166565742014e-14 
   63       2.396494183838e-10       3.366804810714e-14      -4.270284262283e-13       1.576507770011e-16       3.157630089339e-11       3.835186799566e-12      -1.165683139119e-14 
   64       2.429042208032e-10       3.525998625877e-14      -4.779709689040e-13       1.627123221705e-16       3.043724429069e-11       3.713372358516e-12      -1.158177542682e-14 
   65       2.461905726599e-10       3.688825753956e-14      -5.307414911549e-13       1.678532616137e-16       2.935456268069e-11       3.597605527061e-12      -1.145147907866e-14 
   66       2.495089074575e-10       3.855176252301e-14      -5.853234045963e-13       1.730735744571e-16       2.832394325488e-11       3.487304361231e-12      -1.127876821730e-14 
   67       2.528589219686e-10       4.024928667479e-14      -6.416976200065e-13       1.783732471192e-16       2.733946003087e-11       3.381696430124e-12      -1.107837980732e-14 
   68       2.562401185156e-10       4.197960901538e-14      -6.998425209472e-13       1.837522815253e-16       2.639515411477e-11       3.280021604940e-12      -1.086441634549e-14 
   69       2.596536639611e-10       4.374186022889e-14      -7.597339189150e-13       1.892107205280e-16       2.549032158822e-11       3.182208547675e-12      -1.064194307580e-14 
   70       2.631008251046e-10       4.553523218315e-14      -8.213450565147e-13       1.947486285916e-16       2.462516114700e-11       3.088319526498e-12      -1.041381465508e-14 
   71       2.665823818185e-10       4.735887267929e-14      -8.846465969179e-13       2.003660852517e-16       2.379917488420e-11       2.998346982933e-12      -1.018315246176e-14 
   72       2.700985953413e-10       4.921188537409e-14      -9.496066055347e-13       2.060631858300e-16       2.301113229971e-11       2.912209822529e-12      -9.953352354527e-15 
   73       2.736491765702e-10       5.109332970224e-14      -1.016190531686e-12       2.118400421490e-16       2.225903430967e-11       2.829749705529e-12      -9.728092431079e-15 
   74       2.772332543538e-10       5.300222079868e-14      -1.084361190274e-12       2.176967832461e-16       2.154007725592e-11       2.750727337535e-12      -9.511340786751e-15 
   75       2.808493437853e-10       5.493752942088e-14      -1.154078743456e-12       2.236335560886e-16       2.085061691547e-11       2.674818760180e-12      -9.307363273229e-15 
   76       2.844960012298e-10       5.689813650000e-14      -1.225302233839e-12       2.296505166435e-16       2.018707163943e-11       2.601699651975e-12      -9.119960732491e-15 
   77       2.881739973962e-10       5.888268739789e-14      -1.297994547374e-12       2.357477996286e-16       1.954890146258e-11       2.531324177989e-12      -8.950002965534e-15 
   78       2.918844847708e-10       6.088971080850e-14      -1.372118326375e-12       2.419255445181e-16       1.893610938523e-11       2.463690486891e-12      -8.797457077646e-15 
   79       2.956283286981e-10       6.291766077954e-14      -1.447634511550e-12       2.481839052059e-16       1.834833397573e-11       2.398755338040e-12      -8.662110197677e-15 
   80       2.994060897550e-10       6.496491570445e-14      -1.524502355487e-12       2.545230505222e-16       1.778483263759e-11       2.336432196874e-12      -8.543561436492e-15 
   81       3.032180061262e-10       6.702977731428e-14      -1.602679436143e-12       2.609431647507e-16       1.724446487651e-11       2.276589330294e-12      -8.441213845423e-15 
   82       3.070639759789e-10       6.911046966966e-14      -1.682121670327e-12       2.674444481450e-16       1.672567556746e-11       2.219047902054e-12      -8.354266374723e-15 
   83       3.109435398377e-10       7.120513815272e-14      -1.762783327193e-12       2.740271174457e-16       1.622647822172e-11       2.163580068154e-12      -8.281705832021e-15 
   84       3.148561780400e-10       7.331190941265e-14      -1.844616425434e-12       2.806914032923e-16       1.574493680388e-11       2.109964032416e-12      -8.222267468365e-15 
   85       3.188022983666e-10       7.542908482877e-14      -1.927568780522e-12       2.874375408358e-16       1.528073961034e-11       2.058163872031e-12      -8.174326843763e-15 
   86       3.227823805858e-10       7.755497742037e-14      -2.011585656970e-12       2.942657785104e-16       1.483385684065e-11       2.008176169877e-12      -8.135975208111e-15 
   87       3.267966637825e-10       7.968785376088e-14      -2.096610358910e-12       3.011763814571e-16       1.440405701517e-11       1.959974771550e-12      -8.105040837232e-15 
   88       3.308451340286e-10       8.182593399412e-14      -2.182584233233e-12       3.081696319884e-16       1.399089862114e-11       1.913509838067e-12      -8.079080464054e-15 
   89       3.349275120533e-10       8.396739185076e-14      -2.269446672711e-12       3.152458300527e-16       1.359372175875e-11       1.868706898572e-12      -8.055370709803e-15 
   90       3.390432409136e-10       8.611035466462e-14      -2.357135119128e-12       3.224052936993e-16       1.321163978717e-11       1.825465903032e-12      -8.030899515183e-15 
   91       3.431914736644e-10       8.825290338907e-14      -2.445585066410e-12       3.296483595424e-16       1.284353097061e-11       1.783660274946e-12      -8.002357571564e-15 
   92       3.473710610294e-10       9.039307261338e-14      -2.534730063756e-12       3.369753832262e-16       1.248803012439e-11       1.743135964042e-12      -7.966129752169e-15 
   93       3.515808959086e-10       9.252888378452e-14      -2.624502932864e-12       3.443867502956e-16       1.214385189195e-11       1.703749775472e-12      -7.919149722976e-15 
   94       3.558210329544e-10       9.465845055273e-14      -2.714839622253e-12       3.518829096691e-16       1.181083433854e-11       1.665493009217e-12      -7.861629417085e-15 
   95       3.600917153672e-10       9.677988937393e-14      -2.805675941115e-12       3.594643460829e-16       1.148903759881e-11       1.628384751123e-12      -7.794726140753e-15 
   96       3.643930257294e-10       9.889128818180e-14      -2.896946416395e-12       3.671315707319e-16       1.117842248024e-11       1.592433850612e-12      -7.719719207160e-15 
   97       3.687248785738e-10       1.009907068600e-13      -2.988584312589e-12       3.748851218779e-16       1.087884666145e-11       1.557638512525e-12      -7.638013216321e-15 
   98       3.730870129525e-10       1.030761777143e-13      -3.080521651534e-12       3.827255654564e-16       1.059006089049e-11       1.523985888970e-12      -7.551141334999e-15 
   99       3.774789850052e-10       1.051457059448e-13      -3.172689232208e-12       3.906534956843e-16       1.031170518311e-11       1.491451671162e-12      -7.460768576618e-15 
  100       3.819001605283e-10       1.071972701180e-13      -3.265016650520e-12       3.986695356674e-16       1.004330502111e-11       1.459999681272e-12      -7.368695081171e-15 
  101       3.863497075429e-10       1.092288226391e-13      -3.357432319111e-12       4.067743380077e-16       9.784267550620e-12       1.429581464266e-12      -7.276859395140e-15 
  102       3.908265888640e-10       1.112382902240e-13      -3.449863487144e-12       4.149685854108e-16       9.533877780386e-12       1.400135879755e-12      -7.187341751400e-15 
  103       3.953295546689e-10       1.132235743718e-13      -3.542236260100e-12       4.232529912934e-16       9.291294780082e-12       1.371588693836e-12      -7.102367349135e-15 
  104       3.998574004248e-10       1.151826030034e-13      -3.634476182393e-12       4.316282769842e-16       9.055741939210e-12       1.343869517393e-12      -7.023822306452e-15 
  105       4.044097963596e-10       1.171134923075e-13      -3.726510032212e-12       4.400950985106e-16       8.827115202677e-12       1.316966105983e-12      -6.951719984973e-15 
  106       4.089865567079e-10       1.190144077399e-13      -3.818264307163e-12       4.486541110080e-16       8.605450294020e-12       1.290876668306e-12      -6.885532638270e-15 
  107       4.135873798971e-10       1.208835158305e-13      -3.909664708777e-12       4.573059915895e-16       8.390734342877e-12       1.265592959848e-12      -6.824658188241e-15 
