# dimensionless total [l(l+1)/2pi] C_l's
# for l=2 to 3000, i.e. number of multipoles equal to 2999
#
# -> if you prefer output in CAMB/HealPix/LensPix units/order, set 'format' to 'camb' in input file
# -> if you don't want to see such a header, set 'headers' to 'no' in input file
# -> for CMB lensing (phi), these are C_l^phi-phi for the lensing potential.
#    Remember the conversion factors:
#    C_l^dd (deflection) = l(l+1) C_l^phi-phi
#    C_l^gg (shear/convergence) = 1/4 (l(l+1))^2 C_l^phi-phi
#
# 1:l     2:TT                     3:EE                     4:TE                     5:BB                     6:phiphi                 7:TPhi                   8:Ephi               
    2       1.513663386369e-10       4.793981150446e-15       3.799592735211e-13       0.000000000000e+00       8.309250889770e-09       5.059285378922e-10      -2.012688777931e-12 
    3       1.417622717064e-10       6.054235159623e-15       4.281345393718e-13       0.000000000000e+00       5.130022741035e-09       3.573195444904e-10      -1.512243880198e-12 
    4       1.331026784581e-10       5.148295584830e-15       3.998190332863e-13       0.000000000000e+00       3.573575739105e-09       2.695900811579e-10      -9.768104172476e-13 
    5       1.266655490042e-10       3.372263990699e-15       3.391802137794e-13       0.000000000000e+00       2.668872175268e-09       2.123216273569e-10      -5.310383149927e-13 
    6       1.222150244929e-10       1.855019770536e-15       2.715926139322e-13       0.000000000000e+00       2.084792186736e-09       1.723421826288e-10      -2.072617082091e-13 
    7       1.192639742179e-10       9.971195559829e-16       2.117276115360e-13       0.000000000000e+00       1.680726166073e-09       1.430982771780e-10      -5.087616899098e-15 
    8       1.174539101517e-10       6.484316030127e-16       1.659119467774e-13       0.000000000000e+00       1.387276509495e-09       1.209828174932e-10       9.391217446933e-14 
    9       1.164863523775e-10       5.208538567762e-16       1.354226031537e-13       0.000000000000e+00       1.166775098256e-09       1.038451116711e-10       1.170814070507e-13 
   10       1.161136875839e-10       4.388878265966e-16       1.186585533948e-13       0.000000000000e+00       9.966933548188e-10       9.028502394659e-11       9.396056605431e-14 
   11       1.162397476140e-10       3.648956410663e-16       1.125879226443e-13       0.000000000000e+00       8.432981319425e-10       7.969022865353e-11       5.145289775362e-14 
   12       1.167186059317e-10       3.172091573951e-16       1.137846587680e-13       0.000000000000e+00       7.367639740885e-10       7.044019766340e-11       8.505618241583e-15 
   13       1.174805479362e-10       3.043853680124e-16       1.192749608441e-13       0.000000000000e+00       6.493090979212e-10       6.289723234603e-11      -2.257426959538e-14 
   14       1.184527201305e-10       3.151983052213e-16       1.268752306069e-13       0.000000000000e+00       5.765460387336e-10       5.631069742790e-11      -3.808032988857e-14 
   15       1.196327115115e-10       3.376302207330e-16       1.351670733920e-13       0.000000000000e+00       5.152987900202e-10       5.077392683339e-11      -3.911825351942e-14 
   16       1.209607885486e-10       3.710855152880e-16       1.435463161551e-13       0.000000000000e+00       4.632251725418e-10       4.602388418300e-11      -3.059079476225e-14 
   17       1.224268395309e-10       4.221939212216e-16       1.519148072975e-13       0.000000000000e+00       4.185557506180e-10       4.189558725140e-11      -1.835766559711e-14 
   18       1.239827152335e-10       4.958915269156e-16       1.605129979179e-13       0.000000000000e+00       3.797871753083e-10       3.827309334805e-11      -7.625014250928e-15 
   19       1.256399522702e-10       5.919322321492e-16       1.695816974103e-13       0.000000000000e+00       3.463010551316e-10       3.511660140805e-11      -8.588835501020e-16 
   20       1.273774280783e-10       7.077703515000e-16       1.793011651018e-13       0.000000000000e+00       3.168097016379e-10       3.233211906204e-11       6.140712779039e-16 
   21       1.292013476075e-10       8.428014494220e-16       1.896248587454e-13       0.000000000000e+00       2.908498936991e-10       2.986834632250e-11      -2.208170084136e-15 
   22       1.310932175497e-10       9.966764019451e-16       2.003308375770e-13       0.000000000000e+00       2.677997307936e-10       2.764894014937e-11      -7.116141298918e-15 
   23       1.330510750896e-10       1.169162367783e-15       2.109796695254e-13       0.000000000000e+00       2.473423501691e-10       2.565115429993e-11      -1.224154539852e-14 
   24       1.350578969220e-10       1.359982477929e-15       2.210283699173e-13       0.000000000000e+00       2.290052171169e-10       2.384717770948e-11      -1.576021980482e-14 
   25       1.371245694267e-10       1.569682049925e-15       2.302061543603e-13       0.000000000000e+00       2.125726012293e-10       2.222955807899e-11      -1.704115583428e-14 
   26       1.392516910839e-10       1.799271732240e-15       2.383375090007e-13       0.000000000000e+00       1.977469378231e-10       2.077874975904e-11      -1.603221659530e-14 
   27       1.414250664811e-10       2.050808632383e-15       2.453548521493e-13       0.000000000000e+00       1.843502657335e-10       1.946638133736e-11      -1.354586940408e-14 
   28       1.436178513808e-10       2.326664570870e-15       2.512527368427e-13       0.000000000000e+00       1.721515401574e-10       1.825438818747e-11      -1.074032789752e-14 
   29       1.458402159073e-10       2.628286114312e-15       2.560966638182e-13       0.000000000000e+00       1.610883960927e-10       1.714161976039e-11      -8.251387558459e-15 
   30       1.481031795375e-10       2.956817046081e-15       2.600099968569e-13       0.000000000000e+00       1.510419911924e-10       1.612991459348e-11      -6.645706053299e-15 
   31       1.504067473837e-10       3.313330910822e-15       2.631179024658e-13       0.000000000000e+00       1.418073521890e-10       1.521153179650e-11      -6.414036697388e-15 
   32       1.527533162682e-10       3.698746720084e-15       2.653647239508e-13       0.000000000000e+00       1.333367125025e-10       1.437602547602e-11      -7.275771569166e-15 
   33       1.551364436598e-10       4.113867137635e-15       2.666269804108e-13       0.000000000000e+00       1.255700882110e-10       1.360397846746e-11      -8.597315848011e-15 
   34       1.575428599565e-10       4.559448161410e-15       2.667633927173e-13       0.000000000000e+00       1.183987072344e-10       1.287234865882e-11      -9.699006888081e-15 
   35       1.599770013022e-10       5.036397320039e-15       2.656317003764e-13       0.000000000000e+00       1.117858051461e-10       1.218306577560e-11      -1.034773362137e-14 
   36       1.624432942894e-10       5.545636666061e-15       2.630750174004e-13       0.000000000000e+00       1.056782786002e-10       1.154361228709e-11      -1.043004418353e-14 
   37       1.649411749622e-10       6.088033593572e-15       2.589498136179e-13       0.000000000000e+00       9.999658539093e-11       1.095832054712e-11      -9.880253238946e-15 
   38       1.674731096848e-10       6.664354029931e-15       2.532421881445e-13       0.000000000000e+00       9.472599948160e-11       1.042530923247e-11      -8.880176959967e-15 
   39       1.700379944059e-10       7.275286839706e-15       2.459907052153e-13       0.000000000000e+00       8.984975507371e-11       9.937978803154e-12      -7.730231002274e-15 
   40       1.726281696622e-10       7.921450618735e-15       2.372570647099e-13       0.000000000000e+00       8.532128952549e-11       9.485379573847e-12      -6.801796273331e-15 
   41       1.752337502164e-10       8.603436415639e-15       2.271031701747e-13       0.000000000000e+00       8.108045184915e-11       9.055513042592e-12      -6.434845085602e-15 
   42       1.778588825668e-10       9.321963387822e-15       2.155099863369e-13       0.000000000000e+00       7.711472094410e-11       8.647376748336e-12      -6.579851376881e-15 
   43       1.805096781096e-10       1.007776627922e-14       2.024346253625e-13       0.000000000000e+00       7.341354210994e-11       8.262246433752e-12      -7.046933080307e-15 
   44       1.831893795289e-10       1.087155138313e-14       1.878321334467e-13       0.000000000000e+00       6.994995809343e-11       7.900260406344e-12      -7.599924774150e-15 
   45       1.858990613546e-10       1.170395874815e-14       1.716559955594e-13       0.000000000000e+00       6.669022787507e-11       7.560697566359e-12      -8.012408828081e-15 
   46       1.886407176377e-10       1.257543826525e-14       1.538604785743e-13       0.000000000000e+00       6.362918851271e-11       7.243150057910e-12      -8.262434762662e-15 
   47       1.914145659062e-10       1.348633441136e-14       1.343985202002e-13       0.000000000000e+00       6.076324445154e-11       6.946528348594e-12      -8.391212655001e-15 
   48       1.942178668137e-10       1.443691631217e-14       1.132207851877e-13       0.000000000000e+00       5.807970230257e-11       6.668634347155e-12      -8.449866164609e-15 
   49       1.970446700452e-10       1.542737438859e-14       9.027543487149e-14       0.000000000000e+00       5.555609451843e-11       6.406081655494e-12      -8.499999771599e-15 
   50       1.998885724235e-10       1.645784823671e-14       6.551425199988e-14       0.000000000000e+00       5.316693861434e-11       6.155279635010e-12      -8.600256221041e-15 
   51       2.027524643217e-10       1.752852696896e-14       3.891350983051e-14       0.000000000000e+00       5.090774685391e-11       5.915885522156e-12      -8.760371245575e-15 
   52       2.056409895864e-10       1.863957031277e-14       1.045836935441e-14       0.000000000000e+00       4.877636465337e-11       5.688151501343e-12      -8.975628022627e-15 
   53       2.085576548815e-10       1.979107791875e-14      -1.986291390720e-14       0.000000000000e+00       4.676578596829e-11       5.471913806541e-12      -9.239687102754e-15 
   54       2.115047173447e-10       2.098308747701e-14      -5.205892128836e-14       0.000000000000e+00       4.486382687747e-11       5.266563035137e-12      -9.544494363433e-15 
   55       2.144834896405e-10       2.221558716590e-14      -8.613559799066e-14       0.000000000000e+00       4.305683734458e-11       5.071305606642e-12      -9.879841093973e-15 
   56       2.174956012321e-10       2.348856093481e-14      -1.220981446227e-13       0.000000000000e+00       4.134266407825e-11       4.886092207731e-12      -1.023212714446e-14 
   57       2.205418536578e-10       2.480195117123e-14      -1.599494753757e-13       0.000000000000e+00       3.972033618115e-11       4.710867995287e-12      -1.058512929030e-14 
   58       2.236217365952e-10       2.615564405755e-14      -1.996896191464e-13       0.000000000000e+00       3.818614370657e-11       4.545283715736e-12      -1.092021887962e-14 
   59       2.267333317798e-10       2.754946824586e-14      -2.413156741286e-13       0.000000000000e+00       3.673346857385e-11       4.388677362219e-12      -1.121625623376e-14 
   60       2.298732169234e-10       2.898319353265e-14      -2.848217624047e-13       0.000000000000e+00       3.535261548381e-11       4.240055831763e-12      -1.144948504771e-14 
   61       2.330379243590e-10       3.045647886031e-14      -3.301998446912e-13       0.000000000000e+00       3.403350051221e-11       4.098366666988e-12      -1.159911136085e-14 
   62       2.362289169365e-10       3.196870568060e-14      -3.774424810043e-13       0.000000000000e+00       3.277480461447e-11       3.963426054652e-12      -1.166574270312e-14 
   63       2.394485636047e-10       3.351910466593e-14      -4.265406118976e-13       0.000000000000e+00       3.157658403023e-11       3.835167524630e-12      -1.165691926078e-14 
   64       2.426986374162e-10       3.510680020713e-14      -4.774827352309e-13       0.000000000000e+00       3.043751704770e-11       3.713361288433e-12      -1.158186781399e-14 
   65       2.459802687764e-10       3.673080748034e-14      -5.302548880537e-13       0.000000000000e+00       2.935482559107e-11       3.597605100547e-12      -1.145157650441e-14 
   66       2.492938986921e-10       3.839002951399e-14      -5.848406284893e-13       0.000000000000e+00       2.832419680791e-11       3.487315119761e-12      -1.127886960274e-14 
   67       2.526392320201e-10       4.008325425570e-14      -6.412210176179e-13       0.000000000000e+00       2.733970465650e-11       3.381716770501e-12      -1.107848227633e-14 
   68       2.560157785377e-10       4.180926309186e-14      -6.993745917097e-13       0.000000000000e+00       2.639539018349e-11       3.280048029735e-12      -1.086451552231e-14 
   69       2.594247079666e-10       4.356718849673e-14      -7.592773128838e-13       0.000000000000e+00       2.549054946220e-11       3.182237547504e-12      -1.064203500030e-14 
   70       2.628672885665e-10       4.535622391633e-14      -8.209025758606e-13       0.000000000000e+00       2.462538118906e-11       3.088348145693e-12      -1.041389639632e-14 
   71       2.663443014223e-10       4.717551864672e-14      -8.842211986942e-13       0.000000000000e+00       2.379938745136e-11       2.998372910648e-12      -1.018322226360e-14 
   72       2.698560087267e-10       4.902417775129e-14      -9.492014044093e-13       0.000000000000e+00       2.301133773638e-11       2.912231487390e-12      -9.953409786737e-15 
   73       2.734021220627e-10       5.090126197823e-14      -1.015808802638e-12       0.000000000000e+00       2.225923294056e-11       2.829766373827e-12      -9.728138545791e-15 
   74       2.769817706864e-10       5.280578767786e-14      -1.084006371256e-12       0.000000000000e+00       2.154026937855e-11       2.750739214967e-12      -9.511378280439e-15 
   75       2.805934698090e-10       5.473672672000e-14      -1.153754438022e-12       0.000000000000e+00       2.085080279240e-11       2.674827097127e-12      -9.307396654106e-15 
   76       2.842357769862e-10       5.669296104105e-14      -1.225012212790e-12       0.000000000000e+00       2.018725149907e-11       2.601706592724e-12      -9.119995979051e-15 
   77       2.879094695855e-10       5.867313689852e-14      -1.297742747339e-12       0.000000000000e+00       1.954907552828e-11       2.531331780005e-12      -8.950045539393e-15 
   78       2.916157086107e-10       6.067578376554e-14      -1.371908850828e-12       0.000000000000e+00       1.893627788062e-11       2.463700424433e-12      -8.797511290482e-15 
   79       2.953553684994e-10       6.269935634679e-14      -1.447471632677e-12       0.000000000000e+00       1.834849712157e-11       2.398768850199e-12      -8.662179060824e-15 
   80       2.991290195151e-10       6.474223356555e-14      -1.524390515996e-12       0.000000000000e+00       1.778499064835e-11       2.336450033834e-12      -8.543646505437e-15 
   81       3.029369101405e-10       6.680271755071e-14      -1.602623251016e-12       0.000000000000e+00       1.724461795684e-11       2.276611697817e-12      -8.441315059200e-15 
   82       3.067789494696e-10       6.887903262381e-14      -1.682125928525e-12       0.000000000000e+00       1.672582390855e-11       2.219074404180e-12      -8.354381890209e-15 
   83       3.106546896011e-10       7.096932428605e-14      -1.762852993299e-12       0.000000000000e+00       1.622662199748e-11       2.163609648124e-12      -8.281831853122e-15 
   84       3.145636209362e-10       7.307171922924e-14      -1.844756637402e-12       0.000000000000e+00       1.574507617146e-11       2.109995074208e-12      -8.222398556406e-15 
   85       3.185061528894e-10       7.518451901832e-14      -1.927784835099e-12       0.000000000000e+00       1.528087472492e-11       2.058194818217e-12      -8.174457774281e-15 
   86       3.224827642326e-10       7.730603680935e-14      -2.011883005287e-12       0.000000000000e+00       1.483398785808e-11       2.008205705890e-12      -8.136101529441e-15 
   87       3.264936924787e-10       7.943453919282e-14      -2.096994605628e-12       0.000000000000e+00       1.440418409024e-11       1.960001856102e-12      -8.105158968618e-15 
   88       3.305389215333e-10       8.156824620629e-14      -2.183061135564e-12       0.000000000000e+00       1.399102190579e-11       1.913533734524e-12      -8.079187796840e-15 
   89       3.346181693462e-10       8.370533134704e-14      -2.270022139320e-12       0.000000000000e+00       1.359384140016e-11       1.868727207268e-12      -8.055465711683e-15 
   90       3.387308755628e-10       8.584392158469e-14      -2.357815208920e-12       0.000000000000e+00       1.321175592585e-11       1.825482594543e-12      -8.030981837533e-15 
   91       3.428761891764e-10       8.798209737384e-14      -2.446375987197e-12       0.000000000000e+00       1.284364373836e-11       1.783673724306e-12      -8.002428159845e-15 
   92       3.470529561791e-10       9.011789266671e-14      -2.535638170801e-12       0.000000000000e+00       1.248813964221e-11       1.743146985916e-12      -7.966190959398e-15 
   93       3.512600664397e-10       9.224932786713e-14      -2.625534720944e-12       0.000000000000e+00       1.214395827053e-11       1.703759551816e-12      -7.919205094991e-15 
   94       3.554975808342e-10       9.437451433457e-14      -2.716001697403e-12       0.000000000000e+00       1.181093768711e-11       1.665502673873e-12      -7.861682430054e-15 
   95       3.597657515935e-10       9.649156569402e-14      -2.806975009400e-12       0.000000000000e+00       1.148913802674e-11       1.628395267399e-12      -7.794779833803e-15 
   96       3.640646708645e-10       9.859856675370e-14      -2.898389278576e-12       0.000000000000e+00       1.117852009609e-11       1.592445992191e-12      -7.719776130789e-15 
   97       3.683942632927e-10       1.006935739698e-13      -2.990177858574e-12       0.000000000000e+00       1.087894157197e-11       1.557652843832e-12      -7.638075379334e-15 
   98       3.727542786049e-10       1.027746159114e-13      -3.082272854632e-12       0.000000000000e+00       1.059015319957e-11       1.524002745002e-12      -7.551210149972e-15 
   99       3.771442841919e-10       1.048396937252e-13      -3.174605143171e-12       0.000000000000e+00       1.031179499075e-11       1.491471136777e-12      -7.460844803881e-15 
  100       3.815636576910e-10       1.068867816003e-13      -3.267104391385e-12       0.000000000000e+00       1.004339242226e-11       1.460021569940e-12      -7.368778771323e-15 
  101       3.860115795691e-10       1.089138272333e-13      -3.359699076826e-12       0.000000000000e+00       9.784352634070e-12       1.429605296282e-12      -7.276949830078e-15 
  102       3.904870257048e-10       1.109187522926e-13      -3.452316506994e-12       0.000000000000e+00       9.533960627571e-12       1.400160859911e-12      -7.187437383884e-15 
  103       3.949887599715e-10       1.128994528838e-13      -3.544882838931e-12       0.000000000000e+00       9.291375463873e-12       1.371613688554e-12      -7.102465740873e-15 
  104       3.995155901496e-10       1.148538511138e-13      -3.637323663562e-12       0.000000000000e+00       9.055820524599e-12       1.343893119655e-12      -7.023920282438e-15 
  105       4.040671910094e-10       1.167800567173e-13      -3.729565806465e-12       0.000000000000e+00       8.827191753568e-12       1.316986978309e-12      -6.951814473038e-15 
  106       4.086433791043e-10       1.186762282317e-13      -3.821535808011e-12       0.000000000000e+00       8.605524874677e-12       1.290893644410e-12      -6.885620913669e-15 
  107       4.132438549011e-10       1.205405248617e-13      -3.913159405815e-12       0.000000000000e+00       8.390807017490e-12       1.265605061746e-12      -6.824737909673e-15 
