# dimensionless total [l(l+1)/2pi] C_l's
# for l=2 to 3000, i.e. number of multipoles equal to 2999
#
# -> if you prefer output in CAMB/HealPix/LensPix units/order, set 'format' to 'camb' in input file
# -> if you don't want to see such a header, set 'headers' to 'no' in input file
# -> for CMB lensing (phi), these are C_l^phi-phi for the lensing potential.
#    Remember the conversion factors:
#    C_l^dd (deflection) = l(l+1) C_l^phi-phi
#    C_l^gg (shear/convergence) = 1/4 (l(l+1))^2 C_l^phi-phi
#
# 1:l     2:TT                     3:EE                     4:TE                     5:BB                     6:phiphi                 7:TPhi                   8:Ephi               
    2       1.513649974724e-10       4.793938688443e-15       3.799559081106e-13       0.000000000000e+00       8.309177720561e-09       5.059240438941e-10      -2.012670950799e-12 
    3       1.417610151495e-10       6.054181535104e-15       4.281307472611e-13       0.000000000000e+00       5.129977677600e-09       3.573163655907e-10      -1.512230485653e-12 
    4       1.331015002297e-10       5.148249984543e-15       3.998154919664e-13       0.000000000000e+00       3.573544391040e-09       2.695877082531e-10      -9.768017653514e-13 
    5       1.266644272124e-10       3.372234121359e-15       3.391772095480e-13       0.000000000000e+00       2.668848746298e-09       2.123197691214e-10      -5.310336115460e-13 
    6       1.222139416883e-10       1.855003339972e-15       2.715902083704e-13       0.000000000000e+00       2.084773762983e-09       1.723406500451e-10      -2.072598723815e-13 
    7       1.192629154588e-10       9.971107241483e-16       2.117257362135e-13       0.000000000000e+00       1.680711277740e-09       1.430969946253e-10      -5.087571631395e-15 
    8       1.174528726074e-10       6.484258596306e-16       1.659104772515e-13       0.000000000000e+00       1.387264276542e-09       1.209817678007e-10       9.391134262351e-14 
    9       1.164853222869e-10       5.208492434103e-16       1.354214035757e-13       0.000000000000e+00       1.166764803332e-09       1.038442262222e-10       1.170803697252e-13 
   10       1.161126605983e-10       4.388839392222e-16       1.186575024416e-13       0.000000000000e+00       9.966845894564e-10       9.028422982732e-11       9.395973384662e-14 
   11       1.162387146998e-10       3.648924090625e-16       1.125869253462e-13       0.000000000000e+00       8.432907299962e-10       7.968950562780e-11       5.145244240634e-14 
   12       1.167175767644e-10       3.172063478504e-16       1.137836509633e-13       0.000000000000e+00       7.367575149767e-10       7.043958875262e-11       8.505542735520e-15 
   13       1.174795112723e-10       3.043826720330e-16       1.192739040561e-13       0.000000000000e+00       6.493034124321e-10       6.289671198053e-11      -2.257407051136e-14 
   14       1.184516748995e-10       3.151955134547e-16       1.268741068497e-13       0.000000000000e+00       5.765409958537e-10       5.631020572888e-11      -3.807999266852e-14 
   15       1.196316471855e-10       3.376272304102e-16       1.351658761325e-13       0.000000000000e+00       5.152942889248e-10       5.077346109501e-11      -3.911790597331e-14 
   16       1.209597245079e-10       3.710822287499e-16       1.435450449708e-13       0.000000000000e+00       4.632211303876e-10       4.602349143892e-11      -3.059052351280e-14 
   17       1.224257610320e-10       4.221901815029e-16       1.519134610506e-13       0.000000000000e+00       4.185521009192e-10       4.189525968654e-11      -1.835750431953e-14 
   18       1.239816146762e-10       4.958871345648e-16       1.605115755529e-13       0.000000000000e+00       3.797838661377e-10       3.827276961758e-11      -7.624946878036e-15 
   19       1.256388336177e-10       5.919269896904e-16       1.695801954177e-13       0.000000000000e+00       3.462980397595e-10       3.511626808238e-11      -8.588742904775e-16 
   20       1.273763010773e-10       7.077640831456e-16       1.792995768172e-13       0.000000000000e+00       3.168069440557e-10       3.233183536231e-11       6.140661658370e-16 
   21       1.292002122746e-10       8.427939848428e-16       1.896231783722e-13       0.000000000000e+00       2.908473623483e-10       2.986812556056e-11      -2.208152181292e-15 
   22       1.310920612501e-10       9.966675743288e-16       2.003290623665e-13       0.000000000000e+00       2.677974003424e-10       2.764871981411e-11      -7.116078561273e-15 
   23       1.330498944362e-10       1.169152012407e-15       2.109778005120e-13       0.000000000000e+00       2.473401984924e-10       2.565091381561e-11      -1.224143521168e-14 
   24       1.350567032910e-10       1.359970432435e-15       2.210264123749e-13       0.000000000000e+00       2.290032263960e-10       2.384696758089e-11      -1.576007986202e-14 
   25       1.371233676983e-10       1.569668147175e-15       2.302041154618e-13       0.000000000000e+00       2.125707548285e-10       2.222939421503e-11      -1.704100673939e-14 
   26       1.392504735390e-10       1.799255796201e-15       2.383353971985e-13       0.000000000000e+00       1.977452208486e-10       2.077858791622e-11      -1.603207523980e-14 
   27       1.414238244720e-10       2.050790468613e-15       2.453526774511e-13       0.000000000000e+00       1.843486652629e-10       1.946620103162e-11      -1.354574778626e-14 
   28       1.436165799832e-10       2.326643963689e-15       2.512505104719e-13       0.000000000000e+00       1.721500460475e-10       1.825421533595e-11      -1.074023169205e-14 
   29       1.458389159268e-10       2.628262835316e-15       2.560943959422e-13       0.000000000000e+00       1.610869987288e-10       1.714147819359e-11      -8.251316214451e-15 
   30       1.481018595416e-10       2.956790856966e-15       2.600076953567e-13       0.000000000000e+00       1.510406816873e-10       1.612980750883e-11      -6.645651583430e-15 
   31       1.504054220667e-10       3.313301563980e-15       2.631155729484e-13       0.000000000000e+00       1.418061231469e-10       1.521144155410e-11      -6.413984379957e-15 
   32       1.527519916934e-10       3.698713959641e-15       2.653623726784e-13       0.000000000000e+00       1.333355570320e-10       1.437593472839e-11      -7.275709438566e-15 
   33       1.551351104063e-10       4.113830700338e-15       2.666246154285e-13       0.000000000000e+00       1.255690001867e-10       1.360387804071e-11      -8.597238855199e-15 
   34       1.575414950558e-10       4.559407777122e-15       2.667610240137e-13       0.000000000000e+00       1.183976817099e-10       1.287223816436e-11      -9.698917388235e-15 
   35       1.599755898554e-10       5.036352711012e-15       2.656293391855e-13       0.000000000000e+00       1.117848374460e-10       1.218294740956e-11      -1.034763643877e-14 
   36       1.624418385497e-10       5.545587547085e-15       2.630726760872e-13       0.000000000000e+00       1.056773643544e-10       1.154348915274e-11      -1.042994527215e-14 
   37       1.649396935616e-10       6.087979672341e-15       2.589475057116e-13       0.000000000000e+00       9.999572076572e-11       1.095819650598e-11      -9.880159198376e-15 
   38       1.674716198183e-10       6.664295006901e-15       2.532399280750e-13       0.000000000000e+00       9.472518075589e-11       1.042518782255e-11      -8.880092576980e-15 
   39       1.700365054574e-10       7.275222408345e-15       2.459885082552e-13       0.000000000000e+00       8.984897870285e-11       9.937862767194e-12      -7.730158064604e-15 
   40       1.726266812281e-10       7.921380465945e-15       2.372549469972e-13       0.000000000000e+00       8.532055241036e-11       9.485270616194e-12      -6.801732852735e-15 
   41       1.752322525665e-10       8.603360222145e-15       2.271011483362e-13       0.000000000000e+00       8.107975145789e-11       9.055411704921e-12      -6.434785834811e-15 
   42       1.778573656788e-10       9.321880828400e-15       2.155080757531e-13       0.000000000000e+00       7.711405487861e-11       8.647282728620e-12      -6.579791375552e-15 
   43       1.805081347051e-10       1.007767702308e-14       2.024328393505e-13       0.000000000000e+00       7.341290808616e-11       8.262158578354e-12      -7.046869209979e-15 
   44       1.831878058321e-10       1.087145509436e-14       1.878304827797e-13       0.000000000000e+00       6.994935408773e-11       7.900176571891e-12      -7.599856159529e-15 
   45       1.858974569494e-10       1.170385508639e-14       1.716544887938e-13       0.000000000000e+00       6.668965217988e-11       7.560614768970e-12      -8.012336713975e-15 
   46       1.886390821866e-10       1.257532688690e-14       1.538591251490e-13       0.000000000000e+00       6.362863945955e-11       7.243065603846e-12      -8.262360433196e-15 
   47       1.914128981510e-10       1.348621497049e-14       1.343973315478e-13       0.000000000000e+00       6.076272038686e-11       6.946440264679e-12      -8.391136771081e-15 
   48       1.942161644387e-10       1.443678846122e-14       1.132197751050e-13       0.000000000000e+00       5.807920166292e-11       6.668541551647e-12      -8.449788634929e-15 
   49       1.970429295331e-10       1.542723777917e-14       9.027461991142e-14       0.000000000000e+00       5.555561591130e-11       6.405984138740e-12      -8.499919616533e-15 
   50       1.998867895327e-10       1.645770251922e-14       6.551365140367e-14       0.000000000000e+00       5.316648084637e-11       6.155178497141e-12      -8.600171719741e-15 
   51       2.027506366400e-10       1.752837178828e-14       3.891314388119e-14       0.000000000000e+00       5.090730877127e-11       5.915782513460e-12      -8.760281039849e-15 
   52       2.056391175608e-10       1.863940530686e-14       1.045825891789e-14       0.000000000000e+00       4.877594512868e-11       5.688048941875e-12      -8.975531511436e-15 
   53       2.085557422921e-10       1.979090271836e-14      -1.986274739757e-14       0.000000000000e+00       4.676538394436e-11       5.471814649193e-12      -9.239584575471e-15 
   54       2.115027718021e-10       2.098290170531e-14      -5.205845584816e-14       0.000000000000e+00       4.486344141381e-11       5.266470931309e-12      -9.544387139640e-15 
   55       2.144815220184e-10       2.221539044062e-14      -8.613481156690e-14       0.000000000000e+00       4.305646762881e-11       5.071224660111e-12      -9.879731399262e-15 
   56       2.174936215461e-10       2.348835287838e-14      -1.220970171081e-13       0.000000000000e+00       4.134230931480e-11       4.886025696515e-12      -1.023201710245e-14 
   57       2.205398696551e-10       2.480173141488e-14      -1.599479894734e-13       0.000000000000e+00       3.971999557728e-11       4.710817873674e-12      -1.058502059032e-14 
   58       2.236197533364e-10       2.615541224314e-14      -1.996877608216e-13       0.000000000000e+00       3.818581649521e-11       4.545250398801e-12      -1.092011269186e-14 
   59       2.267313512005e-10       2.754922402781e-14      -2.413134330792e-13       0.000000000000e+00       3.673315403790e-11       4.388659500673e-12      -1.121615312034e-14 
   60       2.298712373771e-10       2.898293657995e-14      -2.848191325510e-13       0.000000000000e+00       3.535231298182e-11       4.240050077148e-12      -1.144938486979e-14 
   61       2.330359408431e-10       3.045620885582e-14      -3.301968235019e-13       0.000000000000e+00       3.403320948293e-11       4.098367953506e-12      -1.159901334883e-14 
   62       2.362269235909e-10       3.196842231150e-14      -3.774390649830e-13       0.000000000000e+00       3.277452450893e-11       3.963429588242e-12      -1.166564606772e-14 
   63       2.394465544163e-10       3.351880762117e-14      -4.265367950766e-13       0.000000000000e+00       3.157631430242e-11       3.835169432616e-12      -1.165682337810e-14 
   64       2.426966062683e-10       3.510648917739e-14      -4.774785087540e-13       0.000000000000e+00       3.043725716721e-11       3.713358783593e-12      -1.158177225548e-14 
   65       2.459782095016e-10       3.673048215808e-14      -5.302502397408e-13       0.000000000000e+00       2.935457505640e-11       3.597596652225e-12      -1.145148106818e-14 
   66       2.492918051273e-10       3.838968959338e-14      -5.848355423821e-13       0.000000000000e+00       2.832395516044e-11       3.487300632019e-12      -1.127877434615e-14 
   67       2.526370980658e-10       4.008289943261e-14      -6.412154735076e-13       0.000000000000e+00       2.733947149526e-11       3.381697767316e-12      -1.107838754989e-14 
   68       2.560135983996e-10       4.180889306465e-14      -6.993685655274e-13       0.000000000000e+00       2.639516516486e-11       3.280027443895e-12      -1.086442193255e-14 
   69       2.594224769856e-10       4.356680296985e-14      -7.592707799251e-13       0.000000000000e+00       2.549033224940e-11       3.182218211633e-12      -1.064194313999e-14 
   70       2.628650035859e-10       4.535582260167e-14      -8.208955117197e-13       0.000000000000e+00       2.462517144289e-11       3.088332329607e-12      -1.041380676232e-14 
   71       2.663419609921e-10       4.717510126410e-14      -8.842135793716e-13       0.000000000000e+00       2.379918483613e-11       2.998362235562e-12      -1.018313524235e-14 
   72       2.698536133162e-10       4.902374402910e-14      -9.491932064233e-13       0.000000000000e+00       2.301114192609e-11       2.912226836851e-12      -9.953325639144e-15 
   73       2.733996742801e-10       5.090081165390e-14      -1.015800003141e-12       0.000000000000e+00       2.225904362537e-11       2.829767801373e-12      -9.728057391648e-15 
   74       2.769792755059e-10       5.280532049849e-14      -1.083996948153e-12       0.000000000000e+00       2.154008627164e-11       2.750745848509e-12      -9.511300082233e-15 
   75       2.805909348061e-10       5.473624244291e-14      -1.153744370097e-12       0.000000000000e+00       2.085062563701e-11       2.674837040058e-12      -9.307321200301e-15 
   76       2.842332117490e-10       5.669245943480e-14      -1.225001479960e-12       0.000000000000e+00       2.018708006834e-11       2.601717084198e-12      -9.119922901631e-15 
   77       2.879068824622e-10       5.867261774548e-14      -1.297731331316e-12       0.000000000000e+00       1.954890960070e-11       2.531340194529e-12      -8.949974442576e-15 
   78       2.916131056471e-10       6.067524686318e-14      -1.371896735463e-12       0.000000000000e+00       1.893611723601e-11       2.463704579957e-12      -8.797441787628e-15 
   79       2.953527531550e-10       6.269880150859e-14      -1.447458804180e-12       0.000000000000e+00       1.834834154428e-11       2.398767069416e-12      -8.662110778517e-15 
   80       2.991263923700e-10       6.474166062195e-14      -1.524376963167e-12       0.000000000000e+00       1.778483993071e-11       2.336441207587e-12      -8.543579087720e-15 
   81       3.029342685929e-10       6.680212635004e-14      -1.602608965484e-12       0.000000000000e+00       1.724447190279e-11       2.276595350610e-12      -8.441248171986e-15 
   82       3.067762874238e-10       6.887842303324e-14      -1.682110904991e-12       0.000000000000e+00       1.672568233730e-11       2.219050761802e-12      -8.354315225856e-15 
   83       3.106519971461e-10       7.096869619256e-14      -1.762837229787e-12       0.000000000000e+00       1.622648474744e-11       2.163579707373e-12      -8.281765135176e-15 
   84       3.145608850786e-10       7.307107253922e-14      -1.844740134727e-12       0.000000000000e+00       1.574494309930e-11       2.109960498420e-12      -8.222331542481e-15 
   85       3.185033616709e-10       7.518385365260e-14      -1.927767593816e-12       0.000000000000e+00       1.528074568914e-11       2.058157272393e-12      -8.174390252632e-15 
   86       3.224799080096e-10       7.730535270204e-14      -2.011865024750e-12       0.000000000000e+00       1.483386271573e-11       2.008166662754e-12      -8.136033321104e-15 
   87       3.264907641960e-10       7.943383629152e-14      -2.096975883801e-12       0.000000000000e+00       1.440406269849e-11       1.959962569362e-12      -8.105089931612e-15 
   88       3.305359170059e-10       8.156752447229e-14      -2.183041668816e-12       0.000000000000e+00       1.399090412353e-11       1.913495211272e-12      -8.079117830500e-15 
   89       3.346150875504e-10       8.370459075549e-14      -2.270001922224e-12       0.000000000000e+00       1.359372708968e-11       1.868690179531e-12      -8.055394761131e-15 
   90       3.387277189353e-10       8.584316212477e-14      -2.357794234038e-12       0.000000000000e+00       1.321164495456e-11       1.825447489972e-12      -8.030909898280e-15 
   91       3.428729639214e-10       8.798131904896e-14      -2.446354244861e-12       0.000000000000e+00       1.284353598061e-11       1.783640636012e-12      -8.002355282522e-15 
   92       3.470496725846e-10       9.011709549464e-14      -2.535615648887e-12       0.000000000000e+00       1.248803498117e-11       1.743115641451e-12      -7.966117254626e-15 
   93       3.512567381802e-10       9.224851188066e-14      -2.625511405338e-12       0.000000000000e+00       1.214385659789e-11       1.703729368449e-12      -7.919130730793e-15 
   94       3.554942210407e-10       9.437367958368e-14      -2.715977574657e-12       0.000000000000e+00       1.181083889592e-11       1.665473089474e-12      -7.861607605344e-15 
   95       3.597623716835e-10       9.649071224677e-14      -2.806950067521e-12       0.000000000000e+00       1.148904201020e-11       1.628365835783e-12      -7.794704772428e-15 
   96       3.640612803450e-10       9.859769469656e-14      -2.898363507140e-12       0.000000000000e+00       1.117842674852e-11       1.592416395323e-12      -7.719701082870e-15 
   97       3.683908695570e-10       1.006926834081e-13      -2.990151248853e-12       0.000000000000e+00       1.087885078979e-11       1.557622904389e-12      -7.638000622630e-15 
   98       3.727508867244e-10       1.027737069698e-13      -3.082245399721e-12       0.000000000000e+00       1.059006488233e-11       1.523972439259e-12      -7.551135991273e-15 
   99       3.771408967021e-10       1.048387665478e-13      -3.174576838114e-12       0.000000000000e+00       1.031170904218e-11       1.491440607846e-12      -7.460771580435e-15 
  100       3.815602743720e-10       1.068858363515e-13      -3.267075233307e-12       0.000000000000e+00       1.004330875140e-11       1.459991141341e-12      -7.368706852286e-15 
  101       3.860081972203e-10       1.089128640977e-13      -3.359669065068e-12       0.000000000000e+00       9.784271156346e-12       1.429575485860e-12      -7.276879617996e-15 
  102       3.904836379143e-10       1.109177714757e-13      -3.452285643256e-12       0.000000000000e+00       9.533881266020e-12       1.400132394087e-12      -7.187369316202e-15 
  103       3.949853568797e-10       1.128984546124e-13      -3.544851127404e-12       0.000000000000e+00       9.291298150314e-12       1.371587516925e-12      -7.102400291471e-15 
  104       3.995121591091e-10       1.148528356355e-13      -3.637291111126e-12       0.000000000000e+00       9.055745198895e-12       1.343870364069e-12      -7.023857951843e-15 
  105       4.040637200836e-10       1.167790242978e-13      -3.729532423028e-12       0.000000000000e+00       8.827118356631e-12       1.316968674604e-12      -6.951755742833e-15 
  106       4.086398581017e-10       1.186751791544e-13      -3.821501606728e-12       0.000000000000e+00       8.605453346941e-12       1.290880663987e-12      -6.885566231897e-15 
  107       4.132402755472e-10       1.205394594274e-13      -3.913124403260e-12       0.000000000000e+00       8.390737299305e-12       1.265598096118e-12      -6.824687687074e-15 
