# Matter power spectrum P(k) at redshift z=99
# for k=1.00899e-05 to 203.102 h/Mpc,
# number of wavenumbers equal to 845
#    1:k (h/Mpc)              2:P (Mpc/h)^3        
       1.008985923246e-05       4.868382982247e-03 
       2.251775554681e-05       3.993222368106e-02 
       3.498636120247e-05       4.131467073407e-02 
       4.752690064658e-05       4.678295868054e-02 
       6.017107953230e-05       5.235995114398e-02 
       7.295134796122e-05       6.148008803792e-02 
       8.590117158737e-05       6.929578546947e-02 
       9.905531395762e-05       7.683665695227e-02 
       1.124501334903e-04       8.669981061928e-02 
       1.261238985241e-04       9.661825730154e-02 
       1.401171238832e-04       1.067406958246e-01 
       1.544729323814e-04       1.179906440704e-01 
       1.692374445844e-04       1.285046382028e-01 
       1.844601999316e-04       1.399747778088e-01 
       2.001946119095e-04       1.512302529947e-01 
       2.164984592990e-04       1.635541832861e-01 
       2.334344144703e-04       1.759449029376e-01 
       2.510706081373e-04       1.879854714753e-01 
       2.694812277303e-04       2.012312307250e-01 
       2.887471433953e-04       2.151214901948e-01 
       3.089565513139e-04       2.294839323763e-01 
       3.302056182976e-04       2.445070069545e-01 
       3.525991041420e-04       2.604174379322e-01 
       3.762509287930e-04       2.771414043751e-01 
       4.012846398372e-04       2.948531624812e-01 
       4.278337222871e-04       3.135442898702e-01 
       4.560416775835e-04       3.332959107596e-01 
       4.860617833145e-04       3.543209057091e-01 
       5.180564313506e-04       3.765772152979e-01 
       5.521959330390e-04       4.004335798282e-01 
       5.886566801031e-04       4.256854709009e-01 
       6.276185643138e-04       4.525949467999e-01 
       6.692615934693e-04       4.813014237212e-01 
       7.137617003222e-04       5.117994038486e-01 
       7.612858261435e-04       5.442758005866e-01 
       8.119864671933e-04       5.788131296575e-01 
       8.659959882004e-04       6.154256441852e-01 
       9.234211115549e-04       6.541684665675e-01 
       9.843380583383e-04       6.951315680989e-01 
       1.048788822492e-03       7.382586104690e-01 
       1.116778986862e-03       7.835142866130e-01 
       1.188277341593e-03       8.309021677631e-01 
       1.263217364035e-03       8.802965776149e-01 
       1.341500403710e-03       9.316062163545e-01 
       1.423000229794e-03       9.846802876273e-01 
       1.507568477172e-03       1.039488188118e+00 
       1.595040487038e-03       1.095773762413e+00 
       1.685241074673e-03       1.153414302671e+00 
       1.777989849548e-03       1.212273279253e+00 
       1.873105833077e-03       1.272189306776e+00 
       1.970411240942e-03       1.333002496882e+00 
       2.069734400901e-03       1.394560500423e+00 
       2.170911853969e-03       1.456740627039e+00 
       2.273789735124e-03       1.519411519002e+00 
       2.378224553043e-03       1.582428896085e+00 
       2.484083492891e-03       1.645702961550e+00 
       2.591244358339e-03       1.709107378032e+00 
       2.699595254278e-03       1.772551327504e+00 
       2.809034094327e-03       1.835942538649e+00 
       2.919467999818e-03       1.899200158831e+00 
       3.030812641171e-03       1.962251490203e+00 
       3.142991559080e-03       2.025014318423e+00 
       3.255935491967e-03       2.087432716229e+00 
       3.369581727509e-03       2.149450548568e+00 
       3.483873489548e-03       2.211011008035e+00 
       3.598759366763e-03       2.272064399770e+00 
       3.714192786088e-03       2.332570477032e+00 
       3.830131531369e-03       2.392490018329e+00 
       3.946537306183e-03       2.451781403958e+00 
       4.063375338686e-03       2.510420017355e+00 
       4.180614025754e-03       2.568369979673e+00 
       4.298224613405e-03       2.625610571415e+00 
       4.416180910359e-03       2.682116570039e+00 
       4.534459031676e-03       2.737865713221e+00 
       4.653037169509e-03       2.792842748108e+00 
       4.771895388214e-03       2.847031037589e+00 
       4.891015441268e-03       2.900416872166e+00 
       5.010380607654e-03       2.952987928317e+00 
       5.129975545600e-03       3.004734125886e+00 
       5.249786161774e-03       3.055648903455e+00 
       5.369799494223e-03       3.105724637337e+00 
       5.490003607537e-03       3.154956695966e+00 
       5.610387498875e-03       3.203339478129e+00 
       5.730941013670e-03       3.250874096203e+00 
       5.851654769906e-03       3.297558976653e+00 
       5.972520090068e-03       3.343391840180e+00 
       6.093528939880e-03       3.388375179143e+00 
       6.214673873133e-03       3.432510694294e+00 
       6.335947981903e-03       3.475803346306e+00 
       6.457344851613e-03       3.518253926705e+00 
       6.578858520406e-03       3.559866939563e+00 
       6.700483442374e-03       3.600647007352e+00 
       6.822214454238e-03       3.640602734916e+00 
       6.944046745134e-03       3.679736179944e+00 
       7.065975829162e-03       3.718058968756e+00 
       7.187997520434e-03       3.755578831169e+00 
       7.310107910369e-03       3.792299290479e+00 
       7.432303346994e-03       3.828225123665e+00 
       7.554580416073e-03       3.863371073079e+00 
       7.676935923868e-03       3.897747230223e+00 
       7.799366881390e-03       3.931355450642e+00 
       7.921870489981e-03       3.964202357322e+00 
       8.044444128110e-03       3.996309746618e+00 
       8.167085339271e-03       4.027675179554e+00 
       8.289791820870e-03       4.058312885437e+00 
       8.412561414027e-03       4.088234933014e+00 
       8.535392094189e-03       4.117440135819e+00 
       8.658281962499e-03       4.145946668002e+00 
       8.781229237845e-03       4.173760288782e+00 
       8.904232249532e-03       4.200892274451e+00 
       9.027289430517e-03       4.227349790583e+00 
       9.150399311170e-03       4.253140269872e+00 
       9.273560513504e-03       4.278280526925e+00 
       9.396771745844e-03       4.302769569752e+00 
       9.520031797891e-03       4.326621404325e+00 
       9.643339536152e-03       4.349842434213e+00 
       9.766693899711e-03       4.372438601396e+00 
       9.890093896300e-03       4.394423627661e+00 
       1.001353859866e-02       4.415805762064e+00 
       1.013702714118e-02       4.436594316742e+00 
       1.026055871672e-02       4.456787282041e+00 
       1.038413257374e-02       4.476400549132e+00 
       1.050774801356e-02       4.495442604440e+00 
       1.063140438788e-02       4.513913693253e+00 
       1.075510109639e-02       4.531830273876e+00 
       1.087883758462e-02       4.549195975352e+00 
       1.100261334193e-02       4.566014268058e+00 
       1.112642789957e-02       4.582297903319e+00 
       1.125028082899e-02       4.598047166109e+00 
       1.137417174014e-02       4.613278974756e+00 
       1.149810028000e-02       4.627984363990e+00 
       1.162206613114e-02       4.642185482693e+00 
       1.174606901039e-02       4.655875888312e+00 
       1.187010866765e-02       4.669072122100e+00 
       1.199418488471e-02       4.681777349802e+00 
       1.211829747421e-02       4.693991225768e+00 
       1.224244627863e-02       4.705728016011e+00 
       1.236663116941e-02       4.716988520107e+00 
       1.249085204607e-02       4.727787733920e+00 
       1.261510883545e-02       4.738115714758e+00 
       1.273940149094e-02       4.747993283666e+00 
       1.286372999182e-02       4.757416987864e+00 
       1.298809434267e-02       4.766392672384e+00 
       1.311249457272e-02       4.774929022704e+00 
       1.323693073542e-02       4.783029606242e+00 
       1.336140290784e-02       4.790698313124e+00 
       1.348591119034e-02       4.797948932440e+00 
       1.361045570605e-02       4.804776750252e+00 
       1.373503660061e-02       4.811188598416e+00 
       1.385965404174e-02       4.817193971406e+00 
       1.398430821901e-02       4.822795361910e+00 
       1.410899934352e-02       4.827995931216e+00 
       1.423372764771e-02       4.832807407826e+00 
       1.435849338511e-02       4.837228879414e+00 
       1.448329683018e-02       4.841268165600e+00 
       1.460813827812e-02       4.844928650613e+00 
       1.473301804481e-02       4.848214926313e+00 
       1.485793646664e-02       4.851132128852e+00 
       1.498289390044e-02       4.853688152717e+00 
       1.510789072347e-02       4.855884966051e+00 
       1.523292733332e-02       4.857729064453e+00 
       1.535800414793e-02       4.859222605089e+00 
       1.548312160558e-02       4.860369914682e+00 
       1.560828016494e-02       4.861182296599e+00 
       1.573348030509e-02       4.861652714450e+00 
       1.585872252561e-02       4.861806522972e+00 
       1.598400734663e-02       4.861633817956e+00 
       1.610933530897e-02       4.861126045476e+00 
       1.623470697422e-02       4.860308595647e+00 
       1.636012292492e-02       4.859188295278e+00 
       1.648558376469e-02       4.857750809332e+00 
       1.661109011841e-02       4.856012850740e+00 
       1.673664263240e-02       4.853979814675e+00 
       1.686224197463e-02       4.851651151637e+00 
       1.698788883495e-02       4.849029646097e+00 
       1.711358392534e-02       4.846133454972e+00 
       1.723932798012e-02       4.842949928747e+00 
       1.736512175629e-02       4.839496712679e+00 
       1.749096603375e-02       4.835762420621e+00 
       1.761686161566e-02       4.831768513126e+00 
       1.774280932873e-02       4.827499662167e+00 
       1.786881002356e-02       4.822981785890e+00 
       1.799486457501e-02       4.818207859713e+00 
       1.812097388257e-02       4.813180220729e+00 
       1.824713887072e-02       4.807908860207e+00 
       1.837336048938e-02       4.802381581203e+00 
       1.849963971429e-02       4.796632485580e+00 
       1.862597754748e-02       4.790638812173e+00 
       1.875237501771e-02       4.784415750539e+00 
       1.887883318094e-02       4.777955266585e+00 
       1.900535312085e-02       4.771292280497e+00 
       1.913193594933e-02       4.764401859270e+00 
       1.925858280700e-02       4.757285992026e+00 
       1.938529486380e-02       4.749961905865e+00 
       1.951207331950e-02       4.742425832464e+00 
       1.963891940434e-02       4.734686653199e+00 
       1.976583437961e-02       4.726744596282e+00 
       1.989281953829e-02       4.718608419595e+00 
       2.001987620571e-02       4.710275979005e+00 
       2.014700574018e-02       4.701755006549e+00 
       2.027420953374e-02       4.693031207130e+00 
       2.040148901283e-02       4.684147061282e+00 
       2.052884563906e-02       4.675068452989e+00 
       2.065628090997e-02       4.665812730001e+00 
       2.078379635978e-02       4.656375639609e+00 
       2.091139356027e-02       4.646784858073e+00 
       2.103907412157e-02       4.637013795100e+00 
       2.116683969302e-02       4.627086215119e+00 
       2.129469196411e-02       4.616996658935e+00 
       2.142263266535e-02       4.606748417260e+00 
       2.155066356926e-02       4.596345996565e+00 
       2.167878649131e-02       4.585787776336e+00 
       2.180700329099e-02       4.575075393109e+00 
       2.193531587278e-02       4.564226176090e+00 
       2.206372618728e-02       4.553238203458e+00 
       2.219223623229e-02       4.542100817124e+00 
       2.232084805397e-02       4.530841861288e+00 
       2.244956374803e-02       4.519434715985e+00 
       2.257838546090e-02       4.507903526249e+00 
       2.270731539105e-02       4.496245246022e+00 
       2.283635579024e-02       4.484458451586e+00 
       2.296550896486e-02       4.472553153241e+00 
       2.309477727734e-02       4.460532978673e+00 
       2.322416314755e-02       4.448393480159e+00 
       2.335366905427e-02       4.436139887064e+00 
       2.348329753672e-02       4.423774789921e+00 
       2.361305119611e-02       4.411305296005e+00 
       2.374293269725e-02       4.398728484741e+00 
       2.387294477028e-02       4.386049790089e+00 
       2.400309021230e-02       4.373271778375e+00 
       2.413337188923e-02       4.360392665913e+00 
       2.426379273761e-02       4.347424201314e+00 
       2.439435576651e-02       4.334362798567e+00 
       2.452506405949e-02       4.321210303881e+00 
       2.465592077667e-02       4.307971071450e+00 
       2.478692915676e-02       4.294647773626e+00 
       2.491809251927e-02       4.281240485697e+00 
       2.504941426679e-02       4.267755709332e+00 
       2.518089788722e-02       4.254191560325e+00 
       2.531254695627e-02       4.240559611681e+00 
       2.544436513988e-02       4.226841890742e+00 
       2.557635619681e-02       4.213061463324e+00 
       2.570852398133e-02       4.199208671610e+00 
       2.584087244594e-02       4.185291918511e+00 
       2.597340564424e-02       4.171313726113e+00 
       2.610612773389e-02       4.157272156902e+00 
       2.623904297966e-02       4.143168841780e+00 
       2.637215575665e-02       4.129010328009e+00 
       2.650547055353e-02       4.114796221874e+00 
       2.663899197597e-02       4.100527495781e+00 
       2.677272475021e-02       4.086208084246e+00 
       2.690667372668e-02       4.071838529945e+00 
       2.704084388387e-02       4.057422300720e+00 
       2.717524033223e-02       4.042959653021e+00 
       2.730986831833e-02       4.028452958550e+00 
       2.744473322907e-02       4.013904345048e+00 
       2.757984059617e-02       3.999316885590e+00 
       2.771519610072e-02       3.984689160351e+00 
       2.785080557800e-02       3.970024759327e+00 
       2.798667502244e-02       3.955327151947e+00 
       2.812281059279e-02       3.940594518285e+00 
       2.825921861753e-02       3.925832643456e+00 
       2.839590560043e-02       3.911039234688e+00 
       2.853287822642e-02       3.896217779084e+00 
       2.867014336763e-02       3.881369364966e+00 
       2.880770808975e-02       3.866496321677e+00 
       2.894557965859e-02       3.851598799495e+00 
       2.908376554696e-02       3.836679197839e+00 
       2.922227344183e-02       3.821739802296e+00 
       2.936111125182e-02       3.806780717095e+00 
       2.950028711498e-02       3.791801641130e+00 
       2.963980940692e-02       3.776807864574e+00 
       2.977968674934e-02       3.761798240161e+00 
       2.991992801888e-02       3.746774835266e+00 
       3.006054235642e-02       3.731739928418e+00 
       3.020153917674e-02       3.716690538759e+00 
       3.034292817872e-02       3.701633548004e+00 
       3.048471935591e-02       3.686566206282e+00 
       3.062692300766e-02       3.671493180243e+00 
       3.076954975073e-02       3.656410672695e+00 
       3.091261053153e-02       3.641324298869e+00 
       3.105611663883e-02       3.626231098513e+00 
       3.120007971717e-02       3.611136169307e+00 
       3.134451178094e-02       3.596038253814e+00 
       3.148942522908e-02       3.580938352005e+00 
       3.163483286058e-02       3.565837050382e+00 
       3.178074789075e-02       3.550736935038e+00 
       3.192718396829e-02       3.535638187749e+00 
       3.207415519325e-02       3.520541156851e+00 
       3.222167613596e-02       3.505446210407e+00 
       3.236976185693e-02       3.490354151049e+00 
       3.251842792776e-02       3.475268053648e+00 
       3.266769045326e-02       3.460186710280e+00 
       3.281756609471e-02       3.445110468219e+00 
       3.296807209441e-02       3.430040546957e+00 
       3.311922630162e-02       3.414978542080e+00 
       3.327104719986e-02       3.399922941816e+00 
       3.342355393590e-02       3.384875224432e+00 
       3.357676635028e-02       3.369836707637e+00 
       3.373070500968e-02       3.354805078269e+00 
       3.388539124115e-02       3.339785075289e+00 
       3.404084716838e-02       3.324773481840e+00 
       3.419709575014e-02       3.309774256168e+00 
       3.435416082110e-02       3.294784501021e+00 
       3.451206713503e-02       3.279806840897e+00 
       3.467084041087e-02       3.264840058455e+00 
       3.483050738153e-02       3.249882757925e+00 
       3.499109584590e-02       3.234937796064e+00 
       3.515263472420e-02       3.220006808876e+00 
       3.531515411689e-02       3.205086120351e+00 
       3.547868536756e-02       3.190178235067e+00 
       3.564326112997e-02       3.175280624983e+00 
       3.580891543966e-02       3.160396167812e+00 
       3.597568379052e-02       3.145525050758e+00 
       3.614360321665e-02       3.130664753176e+00 
       3.631271238005e-02       3.115815078564e+00 
       3.648305166451e-02       3.100978954541e+00 
       3.665466327647e-02       3.086152914305e+00 
       3.682759135313e-02       3.071340833269e+00 
       3.700188207881e-02       3.056536096859e+00 
       3.717758380999e-02       3.041742927772e+00 
       3.735474721006e-02       3.026959351015e+00 
       3.753342539455e-02       3.012187931794e+00 
       3.771367408789e-02       2.997422532223e+00 
       3.789555179276e-02       2.982666759245e+00 
       3.807911997330e-02       2.967919493752e+00 
       3.826444325354e-02       2.953179150003e+00 
       3.845158963247e-02       2.938443154556e+00 
       3.864063071773e-02       2.923714791925e+00 
       3.883164197941e-02       2.908992731498e+00 
       3.902470302655e-02       2.894271660667e+00 
       3.921989790844e-02       2.879555192825e+00 
       3.941731544346e-02       2.864838635660e+00 
       3.961704957874e-02       2.850122715644e+00 
       3.981919978381e-02       2.835407610230e+00 
       4.002387148228e-02       2.820688725622e+00 
       4.023117652610e-02       2.805966445302e+00 
       4.044123371716e-02       2.791238751400e+00 
       4.065416938230e-02       2.776504202747e+00 
       4.087011800810e-02       2.761762207375e+00 
       4.108922294299e-02       2.747009948330e+00 
       4.131163717545e-02       2.732243512144e+00 
       4.153752419801e-02       2.717461826443e+00 
       4.176705896879e-02       2.702665237529e+00 
       4.200042898355e-02       2.687846595680e+00 
       4.223783547389e-02       2.673005205312e+00 
       4.247949474925e-02       2.658143673296e+00 
       4.272563970381e-02       2.643249302127e+00 
       4.297652151252e-02       2.628322843989e+00 
       4.323241154501e-02       2.613362725172e+00 
       4.349360353122e-02       2.598365489918e+00 
       4.376041601845e-02       2.583323449252e+00 
       4.403319516735e-02       2.568234347554e+00 
       4.431231794305e-02       2.553093545383e+00 
       4.459819576870e-02       2.537897749626e+00 
       4.489127872208e-02       2.522638352920e+00 
       4.519206037240e-02       2.507308647113e+00 
       4.550108337449e-02       2.491900974574e+00 
       4.581894596305e-02       2.476415749956e+00 
       4.614630952020e-02       2.460836971201e+00 
       4.648390742907e-02       2.445156761135e+00 
       4.683255547441e-02       2.429368636938e+00 
       4.719316411280e-02       2.413466354373e+00 
       4.756675301229e-02       2.397433441370e+00 
       4.795446835950e-02       2.381259713569e+00 
       4.835760355679e-02       2.364940826942e+00 
       4.877762409092e-02       2.348421185418e+00 
       4.921619755703e-02       2.331691413885e+00 
       4.967523007970e-02       2.314741968460e+00 
       5.015691069999e-02       2.297536283233e+00 
       5.066376571099e-02       2.280052685197e+00 
       5.119872543759e-02       2.262243346855e+00 
       5.176520658204e-02       2.244068618653e+00 
       5.236721398511e-02       2.225471923942e+00 
       5.300946643626e-02       2.206379015115e+00 
       5.369755186298e-02       2.186705562907e+00 
       5.443811750858e-02       2.166341065592e+00 
       5.523909986108e-02       2.145140829477e+00 
       5.610999569786e-02       2.122920339618e+00 
       5.706216693470e-02       2.099431108106e+00 
       5.810915311482e-02       2.074341015952e+00 
