# dimensionless total lensed [l(l+1)/2pi] C_l's
# for l=2 to 2500, i.e. number of multipoles equal to 2499
#
# -> if you prefer output in CAMB/HealPix/LensPix units/order, set 'format' to 'camb' in input file
# -> if you don't want to see such a header, set 'headers' to 'no' in input file
# -> for CMB lensing (phi), these are C_l^phi-phi for the lensing potential.
#    Remember the conversion factors:
#    C_l^dd (deflection) = l(l+1) C_l^phi-phi
#    C_l^gg (shear/convergence) = 1/4 (l(l+1))^2 C_l^phi-phi
#
# 1:l     2:TT                     3:EE                     4:TE                     5:BB                     6:phiphi                 7:TPhi                   8:Ephi               
    2       1.513653415298e-10       4.794159539507e-15       3.799555496926e-13       2.253206998546e-19       8.309170085730e-09       5.059235709096e-10      -2.012669074026e-12 
    3       1.417618515766e-10       6.054626632192e-15       4.281303294134e-13       4.507413355138e-19       5.129972971232e-09       3.573160370234e-10      -1.512229076049e-12 
    4       1.331029850817e-10       5.148996642245e-15       3.998150656421e-13       7.514555403610e-19       3.573541122165e-09       2.695874608864e-10      -9.768008546020e-13 
    5       1.266667132987e-10       3.373358575540e-15       3.391767713527e-13       1.127590784651e-18       2.668846343118e-09       2.123195677795e-10      -5.310331156362e-13 
    6       1.222171777952e-10       1.856580932519e-15       2.715897153800e-13       1.579301579789e-18       2.084771916169e-09       1.723404876634e-10      -2.072596779022e-13 
    7       1.192672496155e-10       9.992166085057e-16       2.117251131312e-13       2.106766483642e-18       1.680709765365e-09       1.430968680392e-10      -5.087565990743e-15 
    8       1.174584443461e-10       6.511355378778e-16       1.659096217737e-13       2.710184719285e-18       1.387263012796e-09       1.209816606058e-10       9.391125466173e-14 
    9       1.164922704049e-10       5.242387148204e-16       1.354201901595e-13       3.389772510086e-18       1.166763757400e-09       1.038441249746e-10       1.170802585540e-13 
   10       1.161211160057e-10       4.430296115223e-16       1.186557817204e-13       4.145759241093e-18       9.966837082261e-10       9.028414129266e-11       9.395964382615e-14 
   11       1.162488103019e-10       3.698709825192e-16       1.125845250576e-13       4.978383559882e-18       8.432899617577e-10       7.968943806026e-11       5.145239344401e-14 
   12       1.167294312781e-10       3.230947683673e-16       1.137803757977e-13       5.887889529110e-18       7.367568446427e-10       7.043953076954e-11       8.505535647187e-15 
   13       1.174932459419e-10       3.112581409755e-16       1.192695331690e-13       6.874522938290e-18       6.493028223630e-10       6.289664896957e-11      -2.257404786363e-14 
   14       1.184673996810e-10       3.231355056682e-16       1.268683922332e-13       7.938527873713e-18       5.765404725935e-10       5.631014645753e-11      -3.807995537086e-14 
   15       1.196494795408e-10       3.467094830146e-16       1.351585458348e-13       9.080143633603e-18       5.152938218878e-10       5.077341882216e-11      -3.911786730701e-14 
   16       1.209797632834e-10       3.813847094148e-16       1.435357982654e-13       1.029960206072e-17       4.632207111998e-10       4.602345702616e-11      -3.059049328009e-14 
   17       1.224481128983e-10       4.337910633289e-16       1.519019693251e-13       1.159712534757e-17       4.185517227537e-10       4.189521768855e-11      -1.835748749748e-14 
   18       1.240063778168e-10       5.088647728921e-16       1.604974831117e-13       1.297292414207e-17       3.797835234908e-10       3.827273075177e-11      -7.624940618911e-15 
   19       1.256661018791e-10       6.063598885432e-16       1.695631201485e-13       1.442719742987e-17       3.462977277547e-10       3.511623949892e-11      -8.588738237653e-16 
   20       1.274061683809e-10       7.237308570330e-16       1.792791111835e-13       1.596012958687e-17       3.168066590264e-10       3.233180883069e-11       6.140650689987e-16 
   21       1.292327702641e-10       8.603733143858e-16       1.895988900954e-13       1.757189344930e-17       2.908471010452e-10       2.986809638707e-11      -2.208151212823e-15 
   22       1.311273989263e-10       1.015938158303e-15       2.003004957483e-13       1.926264706319e-17       2.677971600663e-10       2.764869263713e-11      -7.116072943812e-15 
   23       1.330880996065e-10       1.190192517801e-15       2.109444785702e-13       2.103253828268e-17       2.473399768345e-10       2.565089139629e-11      -1.224142404964e-14 
   24       1.350978629857e-10       1.382859439155e-15       2.209878385378e-13       2.288170146582e-17       2.290030213941e-10       2.384694749024e-11      -1.576006439807e-14 
   25       1.371675662233e-10       1.594484091137e-15       2.301597736467e-13       2.481026384908e-17       2.125705647637e-10       2.222937456947e-11      -1.704098982555e-14 
   26       1.392977930149e-10       1.826076909195e-15       2.382847532197e-13       2.681834156137e-17       1.977450443176e-10       2.077856899835e-11      -1.603206074000e-14 
   27       1.414743507477e-10       2.079694725978e-15       2.452951817840e-13       2.890604567083e-17       1.843485009766e-10       1.946618263836e-11      -1.354573786261e-14 
   28       1.436704032918e-10       2.357709026149e-15       2.511856004486e-13       3.107347947195e-17       1.721498928562e-10       1.825419618122e-11      -1.074022586240e-14 
   29       1.458961209036e-10       2.661566004593e-15       2.560214967510e-13       3.332074796796e-17       1.610868555444e-10       1.714145766513e-11      -8.251312769720e-15 
   30       1.481625206611e-10       2.992409015730e-15       2.599262219070e-13       3.564795019330e-17       1.510405475640e-10       1.612978646473e-11      -6.645647897541e-15 
   31       1.504696045922e-10       3.351311117361e-15       2.630249325335e-13       3.805517917348e-17       1.418059973600e-10       1.521142225210e-11      -6.413977292947e-15 
   32       1.528197643240e-10       3.739190808560e-15       2.652619690189e-13       4.054253334040e-17       1.333354388993e-10       1.437591907202e-11      -7.275697524974e-15 
   33       1.552065507926e-10       4.156850191119e-15       2.665138521596e-13       4.311010938819e-17       1.255688890666e-10       1.360386685750e-11      -8.597223581703e-15 
   34       1.576166886183e-10       4.605044648301e-15       2.666393081786e-13       4.575800080142e-17       1.183975770451e-10       1.287223114643e-11      -9.698902889930e-15 
   35       1.600546151803e-10       5.084681066040e-15       2.654960853243e-13       4.848630271488e-17       1.117847387107e-10       1.218294392702e-11      -1.034762600533e-14 
   36       1.625247613440e-10       5.596680807735e-15       2.629273102786e-13       5.129510905705e-17       1.056772710733e-10       1.154348849136e-11      -1.042993994352e-14 
   37       1.650265668075e-10       6.141910529684e-15       2.587894700080e-13       5.418451035428e-17       9.999563254003e-11       1.095819788357e-11      -9.880157771884e-15 
   38       1.675624937342e-10       6.721135391667e-15       2.530686861220e-13       5.715458985996e-17       9.472509721012e-11       1.042519043032e-11      -8.880093625508e-15 
   39       1.701314308330e-10       7.335043446709e-15       2.458035504938e-13       6.020542639884e-17       8.984889949017e-11       9.937865797360e-12      -7.730160594082e-15 
   40       1.727257101971e-10       7.984252429142e-15       2.370557958441e-13       6.333709555092e-17       8.532047724206e-11       9.485273285452e-12      -6.801736432798e-15 
   41       1.753354383205e-10       8.669352470457e-15       2.268873641499e-13       6.654966588963e-17       8.107968011305e-11       9.055413334985e-12      -6.434790576494e-15 
   42       1.779647584729e-10       9.391061737927e-15       2.152792649061e-13       6.984318595069e-17       7.711398714014e-11       8.647283015470e-12      -6.579797368640e-15 
   43       1.806197804469e-10       1.015011392282e-14       2.021886612714e-13       7.321769321241e-17       7.341284373071e-11       8.262157737581e-12      -7.046876339913e-15 
   44       1.833037456487e-10       1.094721420656e-14       1.875706567685e-13       7.667321745486e-17       6.994929289686e-11       7.900175439976e-12      -7.599864068962e-15 
   45       1.860177274168e-10       1.178300144813e-14       1.713788002162e-13       8.020977621700e-17       6.668959394727e-11       7.560614733563e-12      -8.012344851161e-15 
   46       1.887637178479e-10       1.265792421130e-14       1.535674289123e-13       8.382735991561e-17       6.362858398264e-11       7.243067946540e-12      -8.262368396872e-15 
   47       1.915419323847e-10       1.357232554833e-14       1.340895579441e-13       8.752594201251e-17       6.076266747106e-11       6.946445925439e-12      -8.391144443852e-15 
   48       1.943496297080e-10       1.452647307657e-14       1.128959366903e-13       9.130548261767e-17       5.807915113098e-11       6.668551050434e-12      -8.449796238269e-15 
   49       1.971808576487e-10       1.552055562289e-14       8.993481860446e-14       9.516592808080e-17       5.555556761334e-11       6.405997492715e-12      -8.499927768768e-15 
   50       2.000292114900e-10       1.655471108188e-14       6.515808467556e-14       9.910721058509e-17       5.316643466241e-11       6.155195215678e-12      -8.600181349408e-15 
   51       2.028975810152e-10       1.762912669002e-14       3.854210741441e-14       1.031292477462e-16       5.090726458733e-11       5.915801861794e-12      -8.760292812004e-15 
   52       2.057906099792e-10       1.874396016951e-14       1.007215221813e-14       1.072319421985e-16       4.877590283329e-11       5.688070001386e-12      -8.975545613960e-15 
   53       2.087118052923e-10       1.989930905145e-14      -2.026341418051e-14       1.114151811847e-16       4.676534343292e-11       5.471836301285e-12      -9.239600637548e-15 
   54       2.116634246921e-10       2.109520878924e-14      -5.247305493240e-14       1.156788361473e-16       4.486340259324e-11       5.266491840736e-12      -9.544404146272e-15 
   55       2.146467812512e-10       2.233164522728e-14      -8.656259339321e-14       1.200227720253e-16       4.305643041863e-11       5.071243345602e-12      -9.879747757260e-15 
   56       2.176635028208e-10       2.360859995686e-14      -1.225371159322e-13       1.244468787816e-16       4.134227363593e-11       4.886040889960e-12      -1.023203121400e-14 
   57       2.207143887075e-10       2.492601292298e-14      -1.603994213473e-13       1.289510469926e-16       3.971996135055e-11       4.710828661473e-12      -1.058503103814e-14 
   58       2.237989262520e-10       2.628376775762e-14      -2.001494187281e-13       1.335351588000e-16       3.818578364365e-11       4.545256284432e-12      -1.092011828196e-14 
   59       2.269151947409e-10       2.768169045236e-14      -2.417840820166e-13       1.381990878806e-16       3.673312248911e-11       4.388660470144e-12      -1.121615292692e-14 
   60       2.300597693185e-10       2.911954803098e-14      -2.852974045688e-13       1.429426994165e-16       3.535228267050e-11       4.240046667309e-12      -1.144937828220e-14 
   61       2.332291794408e-10       3.059699665705e-14      -3.306812150002e-13       1.477658673333e-16       3.403318035137e-11       4.098361187785e-12      -1.159900010037e-14 
   62       2.364248841629e-10       3.211341534830e-14      -3.779279415151e-13       1.526685306079e-16       3.277449650039e-11       3.963420473355e-12      -1.166562620060e-14 
   63       2.396492481806e-10       3.366803241231e-14      -4.270283902521e-13       1.576506496037e-16       3.157628736027e-11       3.835158800397e-12      -1.165679726150e-14 
   64       2.429040399949e-10       3.525996984436e-14      -4.779709209990e-13       1.627121904241e-16       3.043723123618e-11       3.713347258193e-12      -1.158174062411e-14 
   65       2.461903851488e-10       3.688824039558e-14      -5.307414290822e-13       1.678531254304e-16       2.935455008391e-11       3.597584615867e-12      -1.145144506219e-14 
   66       2.495087194633e-10       3.855174464124e-14      -5.853233272548e-13       1.730734337595e-16       2.832393109803e-11       3.487288189338e-12      -1.127873555257e-14 
   67       2.528587422736e-10       4.024926804899e-14      -6.416975275859e-13       1.783731018413e-16       2.733944830006e-11       3.381684708263e-12      -1.107834804546e-14 
   68       2.562399578192e-10       4.197958964071e-14      -6.998424147509e-13       1.837521316128e-16       2.639514279963e-11       3.280013302588e-12      -1.086438418316e-14 
   69       2.596535313301e-10       4.374184009911e-14      -7.597338001017e-13       1.892105659332e-16       2.549031067783e-11       3.182202638802e-12      -1.064190943297e-14 
   70       2.631007267524e-10       4.553521128960e-14      -8.213449257113e-13       1.947484692725e-16       2.462515062883e-11       3.088315212707e-12      -1.041377901340e-14 
   71       2.665823207177e-10       4.735885101059e-14      -8.846464541469e-13       2.003659211723e-16       2.379916474421e-11       2.998343728193e-12      -1.018311493684e-14 
   72       2.700985708222e-10       4.921186291573e-14      -9.496064501385e-13       2.060630169611e-16       2.301112252243e-11       2.912207389228e-12      -9.953313770939e-15 
   73       2.736491839048e-10       5.109330643624e-14      -1.016190362248e-12       2.118398684682e-16       2.225902487830e-11       2.829748191864e-12      -9.728054399865e-15 
   74       2.772332843263e-10       5.300219670319e-14      -1.084361004539e-12       2.176966047386e-16       2.154006815243e-11       2.750727216236e-12      -9.511305785689e-15 
   75       2.808493822471e-10       5.493750446980e-14      -1.154078538245e-12       2.236333727477e-16       2.085060812071e-11       2.674820918557e-12      -9.307334729686e-15 
   76       2.844960301080e-10       5.689811066434e-14      -1.225302005177e-12       2.296503284684e-16       2.018706313358e-11       2.601705297674e-12      -9.119942744137e-15 
   77       2.881740003978e-10       5.888266065284e-14      -1.297994291307e-12       2.357476066147e-16       1.954889322652e-11       2.531334310606e-12      -8.949998852492e-15 
   78       2.918844492254e-10       6.088968313584e-14      -1.372118039218e-12       2.419253466535e-16       1.893610140116e-11       2.463705726612e-12      -8.797468893923e-15 
   79       2.956282460244e-10       6.291763216838e-14      -1.447634189935e-12       2.481837024702e-16       1.834832622753e-11       2.398775881462e-12      -8.662138583720e-15 
   80       2.994059559442e-10       6.496488615195e-14      -1.524501996410e-12       2.545228428856e-16       1.778482511116e-11       2.336457771371e-12      -8.543605466913e-15 
   81       3.032178222403e-10       6.702974682643e-14      -1.602679037016e-12       2.609429521727e-16       1.724445756014e-11       2.276619146942e-12      -8.441270871883e-15 
   82       3.070637486651e-10       6.911043826209e-14      -1.682121229032e-12       2.674442305734e-16       1.672566845222e-11       2.219080607101e-12      -8.354331863976e-15 
   83       3.109432818587e-10       7.120510585152e-14      -1.762782842131e-12       2.740268948148e-16       1.622647130184e-11       2.163613693038e-12      -8.281773199119e-15 
   84       3.148559073122e-10       7.331187625289e-14      -1.844615895710e-12       2.806911755239e-16       1.574493007643e-11       2.109996119745e-12      -8.222328498244e-15 
   85       3.188020322057e-10       7.542905084576e-14      -1.927568206531e-12       2.874373078446e-16       1.528073307256e-11       2.058192166118e-12      -8.174374000628e-15 
   86       3.227821339759e-10       7.755494264705e-14      -2.011585040646e-12       2.942655402053e-16       1.483385048920e-11       2.008198834081e-12      -8.136002362567e-15 
   87       3.267964490725e-10       7.968781822733e-14      -2.096609703865e-12       3.011761377407e-16       1.440405084618e-11       1.959990438053e-12      -8.105043433069e-15 
   88       3.308449606191e-10       8.182589772714e-14      -2.182583544895e-12       3.081693827567e-16       1.399089263022e-11       1.913517659172e-12      -8.079055690171e-15 
   89       3.349273860738e-10       8.396735487333e-14      -2.269445958466e-12       3.152455751948e-16       1.359371594097e-11       1.868706599537e-12      -8.055317677261e-15 
   90       3.390431648906e-10       8.611031699544e-14      -2.357134388469e-12       3.224050330964e-16       1.321163413710e-11       1.825457836440e-12      -8.030819439387e-15 
   91       3.431914461793e-10       8.825286504203e-14      -2.445584331086e-12       3.296480930682e-16       1.284352548232e-11       1.783645476595e-12      -8.002253959583e-15 
   92       3.473710763672e-10       9.039303359701e-14      -2.534729337927e-12       3.369751107459e-16       1.248802479148e-11       1.743116210383e-12      -7.966008595179e-15 
   93       3.515809446395e-10       9.252884410305e-14      -2.624502232561e-12       3.443864716681e-16       1.214384670762e-11       1.703727462461e-12      -7.919019102621e-15 
   94       3.558211054940e-10       9.465841021196e-14      -2.714838962615e-12       3.518826247591e-16       1.181082929600e-11       1.665470461413e-12      -7.861497241608e-15 
   95       3.600918029909e-10       9.677984838296e-14      -2.805675335523e-12       3.594640547640e-16       1.148903269139e-11       1.628364017288e-12      -7.794599478250e-15 
   96       3.643931206869e-10       9.889124655329e-14      -2.896945876266e-12       3.671312728881e-16       1.117841770147e-11       1.592416670850e-12      -7.719604182046e-15 
   97       3.687249742075e-10       1.009906646104e-13      -2.988583847162e-12       3.748848174044e-16       1.087884200513e-11       1.557626284480e-12      -7.637914902813e-15 
   98       3.730871038188e-10       1.030761348641e-13      -3.080521267658e-12       3.827252542606e-16       1.059005635073e-11       1.523979633084e-12      -7.551063647614e-15 
   99       3.774790670001e-10       1.051456625187e-13      -3.172688934115e-12       3.906531776871e-16       1.031170075445e-11       1.491451994993e-12      -7.460714157685e-15 
  100       3.819002310150e-10       1.071972261453e-13      -3.265016439601e-12       3.986692108045e-16       1.004330069856e-11       1.460006742869e-12      -7.368665185366e-15 
  101       3.863497654842e-10       1.092287781541e-13      -3.357432193678e-12       4.067740062304e-16       9.784263329730e-12       1.429594934610e-12      -7.276853771022e-15 
  102       3.908266349571e-10       1.112382452659e-13      -3.449863442191e-12       4.149682466874e-16       9.533873657344e-12       1.400154904253e-12      -7.187358519979e-15 
  103       3.953295914838e-10       1.132235289852e-13      -3.542236287059e-12       4.232526456106e-16       9.291290751785e-12       1.371611852874e-12      -7.102402879447e-15 
  104       3.998574320786e-10       1.151825572352e-13      -3.634476269388e-12       4.316279243440e-16       9.055738003191e-12       1.343894920996e-12      -7.023871504889e-15 
  105       4.044098267178e-10       1.171134461925e-13      -3.726510165900e-12       4.400947389138e-16       8.827111356560e-12       1.316991913432e-12      -6.951777895943e-15 
  106       4.089865888653e-10       1.190143612960e-13      -3.818264473200e-12       4.486537444499e-16       8.605446535383e-12       1.290901238710e-12      -6.885594905936e-15 
  107       4.135874161063e-10       1.208834690577e-13      -3.909664891784e-12       4.573056180593e-16       8.390730669272e-12       1.265614873345e-12      -6.824721118907e-15 
