# dimensionless total lensed [l(l+1)/2pi] C_l's
# for l=2 to 2500, i.e. number of multipoles equal to 2499
#
# -> if you prefer output in CAMB/HealPix/LensPix units/order, set 'format' to 'camb' in input file
# -> if you don't want to see such a header, set 'headers' to 'no' in input file
# -> for CMB lensing (phi), these are C_l^phi-phi for the lensing potential.
#    Remember the conversion factors:
#    C_l^dd (deflection) = l(l+1) C_l^phi-phi
#    C_l^gg (shear/convergence) = 1/4 (l(l+1))^2 C_l^phi-phi
#
# 1:l     2:TT                     3:EE                     4:TE                     5:BB                     6:phiphi                 7:TPhi                   8:Ephi               
    2       1.513694204917e-10       4.794325564671e-15       3.799697564721e-13       2.253311212066e-19       8.309211006469e-09       5.059284906448e-10      -2.012726388875e-12 
    3       1.417665289362e-10       6.054828670935e-15       4.281493060207e-13       4.507621683325e-19       5.129976272424e-09       3.573184912696e-10      -1.512268903306e-12 
    4       1.331073215905e-10       5.149147563701e-15       3.998302933235e-13       7.514902403389e-19       3.573532281909e-09       2.695889590590e-10      -9.768248227876e-13 
    5       1.266704296944e-10       3.373446901950e-15       3.391867465442e-13       1.127642795890e-18       2.668833184824e-09       2.123204761023e-10      -5.310462504415e-13 
    6       1.222204100304e-10       1.856623628144e-15       2.715962873420e-13       1.579374333207e-18       2.084757107076e-09       1.723409175962e-10      -2.072655400421e-13 
    7       1.192703722303e-10       9.992337933178e-16       2.117293094918e-13       2.106863396153e-18       1.680694915667e-09       1.430969343754e-10      -5.088698090239e-15 
    8       1.174615171159e-10       6.511425031700e-16       1.659121403765e-13       2.710309193830e-18       1.387248626539e-09       1.209814736290e-10       9.391280474226e-14 
    9       1.164952728732e-10       5.242424929777e-16       1.354217254732e-13       3.389927936527e-18       1.166749564765e-09       1.038437219565e-10       1.170828534359e-13 
   10       1.161241745055e-10       4.430315270314e-16       1.186565035859e-13       4.145948997976e-18       9.966697477390e-10       9.028353571220e-11       9.396212487958e-14 
   11       1.162518788347e-10       3.698706817299e-16       1.125846397758e-13       4.978611016989e-18       8.432755988806e-10       7.968867182721e-11       5.145410834414e-14 
   12       1.167325160343e-10       3.230918485925e-16       1.137800430198e-13       5.888158050724e-18       7.367431296562e-10       7.043877730250e-11       8.506296379792e-15 
   13       1.174963478484e-10       3.112523820111e-16       1.192688250690e-13       6.874835887022e-18       6.492896659250e-10       6.289595144050e-11      -2.257411232453e-14 
   14       1.184704576167e-10       3.231264484453e-16       1.268673166756e-13       7.938888614750e-18       5.765280198439e-10       5.630938311873e-11      -3.808051576522e-14 
   15       1.196524677946e-10       3.466966719562e-16       1.351570664577e-13       9.080555539163e-18       5.152819952430e-10       5.077261785944e-11      -3.911857203829e-14 
   16       1.209827754634e-10       3.813675765687e-16       1.435340608722e-13       1.030006851455e-17       4.632094606541e-10       4.602274867176e-11      -3.059103598199e-14 
   17       1.224510849753e-10       4.337685034286e-16       1.518999522059e-13       1.159764974924e-17       4.185410719539e-10       4.189462185374e-11      -1.835770271847e-14 
   18       1.240093652258e-10       5.088364658463e-16       1.604952757497e-13       1.297350991102e-17       3.797734538272e-10       3.827212983633e-11      -7.624785217142e-15 
   19       1.256691360555e-10       6.063251342246e-16       1.695607640388e-13       1.442784800832e-17       3.462882027438e-10       3.511560570450e-11      -8.584301232482e-16 
   20       1.274091796183e-10       7.236880961018e-16       1.792765192907e-13       1.596084844319e-17       3.167976506711e-10       3.233126557124e-11       6.145905702527e-16 
   21       1.292357358539e-10       8.603212378169e-16       1.895960574005e-13       1.757268407899e-17       2.908385878212e-10       2.986768129996e-11      -2.207713926472e-15 
   22       1.311303850832e-10       1.015876066167e-15       2.002975651360e-13       1.926351299039e-17       2.677891308930e-10       2.764829269220e-11      -7.115789991818e-15 
   23       1.330911481457e-10       1.190119659223e-15       2.109415941506e-13       2.103348305918e-17       2.473324126966e-10       2.565045089268e-11      -1.224129985998e-14 
   24       1.351009546752e-10       1.382774733924e-15       2.209850865545e-13       2.288272867062e-17       2.289958935836e-10       2.384652817797e-11      -1.576005708910e-14 
   25       1.371706748936e-10       1.594386017127e-15       2.301571790927e-13       2.481137708536e-17       2.125638422971e-10       2.222902039599e-11      -1.704106176189e-14 
   26       1.393009043755e-10       1.825963562866e-15       2.382822890221e-13       2.681954445405e-17       1.977386995808e-10       2.077826694275e-11      -1.603219166358e-14 
   27       1.414774643934e-10       2.079564544923e-15       2.452928643115e-13       2.890734186211e-17       1.843425082874e-10       1.946592278325e-11      -1.354589230030e-14 
   28       1.436735315639e-10       2.357560959854e-15       2.511835081893e-13       3.107487261730e-17       1.721442298863e-10       1.825398618019e-11      -1.074034735115e-14 
   29       1.458992722254e-10       2.661398849325e-15       2.560196725429e-13       3.332224173063e-17       1.610814991763e-10       1.714128995408e-11      -8.251355006039e-15 
   30       1.481656920324e-10       2.992221145809e-15       2.599246297831e-13       3.564954823924e-17       1.510354749187e-10       1.612962365152e-11      -6.645589522266e-15 
   31       1.504727808916e-10       3.351100551640e-15       2.630234693346e-13       3.805688516653e-17       1.418011881082e-10       1.521120434910e-11      -6.413826492823e-15 
   32       1.528229285376e-10       3.738955886305e-15       2.652605906332e-13       4.054435093847e-17       1.333308741054e-10       1.437562159126e-11      -7.275483967274e-15 
   33       1.552096873446e-10       4.156589879405e-15       2.665126304566e-13       4.311204223802e-17       1.255645526889e-10       1.360352844870e-11      -8.596998849579e-15 
   34       1.576197848983e-10       4.604758499559e-15       2.666384218771e-13       4.576005253396e-17       1.183934572059e-10       1.287194731432e-11      -9.698733480658e-15 
   35       1.600576664841e-10       5.084368466992e-15       2.654956766568e-13       4.848847694542e-17       1.117808241394e-10       1.218278460901e-11      -1.034754827779e-14 
   36       1.625277737809e-10       5.596340682975e-15       2.629274277417e-13       5.129740938162e-17       1.056735509545e-10       1.154346431188e-11      -1.042993885406e-14 
   37       1.650295562494e-10       6.141541323789e-15       2.587900755532e-13       5.418694034754e-17       9.999209716170e-11       1.095826084516e-11      -9.880169210403e-15 
   38       1.675654738083e-10       6.720735396271e-15       2.530697678551e-13       5.715715308330e-17       9.472173658102e-11       1.042528750381e-11      -8.880056201460e-15 
   39       1.701344081769e-10       7.334610891472e-15       2.458051648308e-13       6.020812640141e-17       8.984570346683e-11       9.937956799276e-12      -7.730034260863e-15 
   40       1.727286824703e-10       7.983785480294e-15       2.370580826603e-13       6.333993586773e-17       8.531743628979e-11       9.485334955190e-12      -6.801508379254e-15 
   41       1.753383951825e-10       8.668849423890e-15       2.268905333011e-13       6.655265004352e-17       8.107678570783e-11       9.055440077753e-12      -6.434475142815e-15 
   42       1.779676929486e-10       9.390521871918e-15       2.152834833544e-13       6.984631746733e-17       7.711123078254e-11       8.647275656474e-12      -6.579414747400e-15 
   43       1.806226930562e-10       1.014953790596e-14       2.021940088640e-13       7.322097562637e-17       7.341021701475e-11       8.262120838694e-12      -7.046446249881e-15 
   44       1.833066457989e-10       1.094660434291e-14       1.875771077530e-13       7.667665431238e-17       6.994678801005e-11       7.900117930701e-12      -7.599405160395e-15 
   45       1.860206323777e-10       1.178236158947e-14       1.713862292976e-13       8.021337108099e-17       6.668720391747e-11       7.560549213110e-12      -8.011873902485e-15 
   46       1.887666434312e-10       1.265725852027e-14       1.535757022120e-13       8.383111637739e-17       6.362630197834e-11       7.243005446254e-12      -8.261898915766e-15 
   47       1.915448895680e-10       1.357163808991e-14       1.340985626133e-13       8.752986369922e-17       6.076048683516e-11       6.946393910883e-12      -8.390685610366e-15 
   48       1.943526234726e-10       1.452576771964e-14       1.129055875027e-13       9.130957319810e-17       5.807706570779e-11       6.668512624471e-12      -8.449351944275e-15 
   49       1.971838857490e-10       1.551983593521e-14       8.994506495140e-14       9.517019127154e-17       5.555357209972e-11       6.405970553736e-12      -8.499495603564e-15 
   50       2.000322650356e-10       1.655398024298e-14       6.516891115684e-14       9.911165015474e-17       5.316452470518e-11       6.155173017760e-12      -8.599753411759e-15 
   51       2.029006512270e-10       1.762838747865e-14       3.855351223946e-14       1.031338675120e-16       5.090543598213e-11       5.915778333291e-12      -8.759862710852e-15 
   52       2.057936903301e-10       1.874321488541e-14       1.008414246809e-14       1.072367460289e-16       4.877415141989e-11       5.688041519184e-12      -8.975110867240e-15 
   53       2.087148919354e-10       1.989855940920e-14      -2.025082093280e-14       1.114201730045e-16       4.676366525781e-11       5.471802153850e-12      -9.239163371374e-15 
   54       2.116665169098e-10       2.109445580658e-14      -5.245982892111e-14       1.156840199430e-16       4.486179408344e-11       5.266454714395e-12      -9.543971828759e-15 
   55       2.146498813804e-10       2.233088929370e-14      -8.654869612369e-14       1.200281518429e-16       4.305488844989e-11       5.071208973015e-12      -9.879332623889e-15 
   56       2.176666144062e-10       2.360784150739e-14      -1.225225208306e-13       1.244524587005e-16       4.134079522869e-11       4.886014888221e-12      -1.023164530760e-14 
   57       2.207175160230e-10       2.492525264765e-14      -1.603841213513e-13       1.289568311181e-16       3.971854366508e-11       4.710815523120e-12      -1.058468460551e-14 
   58       2.238020743286e-10       2.628300664023e-14      -2.001334291256e-13       1.335411512623e-16       3.818442409004e-11       4.545259158242e-12      -1.091981940084e-14 
   59       2.269183693937e-10       2.768092981109e-14      -2.417674434075e-13       1.382052928341e-16       3.673181884377e-11       4.388680931609e-12      -1.121590711526e-14 
   60       2.300629771738e-10       2.911878956085e-14      -2.852801859492e-13       1.429491210386e-16       3.535103319923e-11       4.240084478803e-12      -1.144918808980e-14 
   61       2.332324274917e-10       3.059624238198e-14      -3.306635102014e-13       1.477725098176e-16       3.403198379103e-11       4.098414423559e-12      -1.159886518414e-14 
   62       2.364281777881e-10       3.211266727458e-14      -3.779098436817e-13       1.526753981365e-16       3.277335156458e-11       3.963486858075e-12      -1.166554501776e-14 
   63       2.396525903528e-10       3.366729241657e-14      -4.270099835472e-13       1.576577463356e-16       3.157519262534e-11       3.835236089471e-12      -1.165676747832e-14 
   64       2.429074309155e-10       3.525923964665e-14      -4.779522785542e-13       1.627195204888e-16       3.043618516741e-11       3.713433268538e-12      -1.158175905356e-14 
   65       2.461938218665e-10       3.688752153139e-14      -5.307226108550e-13       1.678606929213e-16       2.935355106363e-11       3.597677258275e-12      -1.145150759980e-14 
   66       2.495121954776e-10       3.855103843237e-14      -5.853043777954e-13       1.730812427265e-16       2.832297745549e-11       3.487385502423e-12      -1.127883711051e-14 
   67       2.528622471236e-10       4.024857557331e-14      -6.416784737116e-13       1.783811562844e-16       2.733853834320e-11       3.381784894000e-12      -1.107848248486e-14 
   68       2.562434777544e-10       4.197891176206e-14      -6.998232680709e-13       1.837604354810e-16       2.639427483257e-11       3.280114722813e-12      -1.086454449129e-14 
   69       2.596570535173e-10       4.374117769405e-14      -7.597145754391e-13       1.892191231492e-16       2.548948296803e-11       3.182303681867e-12      -1.064208869647e-14 
   70       2.631042406385e-10       4.553456531544e-14      -8.213256466995e-13       1.947572837359e-16       2.462436141761e-11       3.088414266406e-12      -1.041397075430e-14 
   71       2.665858183717e-10       4.735822251604e-14      -8.846271542025e-13       2.003749967578e-16       2.379841227395e-11       2.998439191521e-12      -1.018331322068e-14 
   72       2.701020472894e-10       4.921125305216e-14      -9.495871734693e-13       2.060723575146e-16       2.301040506515e-11       2.912297684695e-12      -9.953513319390e-15 
   73       2.736526375743e-10       5.109271646929e-14      -1.016171164896e-12       2.118494778046e-16       2.225834076568e-11       2.829831778360e-12      -9.728250707947e-15 
   74       2.772367173106e-10       5.300162802488e-14      -1.084341955456e-12       2.177064866383e-16       2.153941580726e-11       2.750802602439e-12      -9.511495243439e-15 
   75       2.808528007753e-10       5.493695861108e-14      -1.154059720406e-12       2.236435309534e-16       2.084998608978e-11       2.674886676903e-12      -9.307514748404e-15 
   76       2.844994441535e-10       5.689758926294e-14      -1.225283511854e-12       2.296607666945e-16       2.018647008712e-11       2.601760144824e-12      -9.120111813529e-15 
   77       2.881774208208e-10       5.888216527645e-14      -1.297976206727e-12       2.357583285970e-16       1.954832784720e-11       2.531377400252e-12      -8.950156366025e-15 
   78       2.918878869692e-10       6.088921522431e-14      -1.372100432039e-12       2.419363561656e-16       1.893556236591e-11       2.463736769846e-12      -8.797615171727e-15 
   79       2.956317120457e-10       6.291719301823e-14      -1.447617111280e-12       2.481950033283e-16       1.834781222312e-11       2.398795206494e-12      -8.662274968342e-15 
   80       2.994094611402e-10       6.496447690048e-14      -1.524485477835e-12       2.545344389536e-16       1.778433485051e-11       2.336466385149e-12      -8.543734422074e-15 
   81       3.032213773733e-10       6.702936843530e-14      -1.602663088409e-12       2.609548473671e-16       1.724398979930e-11       2.276618798673e-12      -8.441396084265e-15 
   82       3.070673642834e-10       6.911009150048e-14      -1.682105836452e-12       2.674564288686e-16       1.672522200813e-11       2.219073853677e-12      -8.354458348028e-15 
   83       3.109469682145e-10       7.120479127876e-14      -1.762767965579e-12       2.740394002488e-16       1.622604507076e-11       2.163603966361e-12      -8.281907404878e-15 
   84       3.148596739463e-10       7.331159424259e-14      -1.844601473198e-12       2.807039921955e-16       1.574452303429e-11       2.109987536159e-12      -8.222477904923e-15 
   85       3.188058864751e-10       7.542880174305e-14      -1.927554178384e-12       2.874504398852e-16       1.528034421605e-11       2.058188508849e-12      -8.174545062928e-15 
   86       3.227860804566e-10       7.755472681404e-14      -2.011571356817e-12       2.942789917720e-16       1.483347882758e-11       2.008203228424e-12      -8.136199835444e-15 
   87       3.268004892685e-10       7.968763604877e-14      -2.096596325235e-12       3.011899130180e-16       1.440369541141e-11       1.960005271734e-12      -8.105270183894e-15 
   88       3.308490926626e-10       8.182574961637e-14      -2.182570444608e-12       3.081834859574e-16       1.399055248742e-11       1.913544500257e-12      -8.079312505214e-15 
   89       3.349316044170e-10       8.396724127850e-14      -2.269433123307e-12       3.152600105616e-16       1.359339019937e-11       1.868746111868e-12      -8.055603062498e-15 
   90       3.390474599880e-10       8.611023840588e-14      -2.357121820289e-12       3.224198049035e-16       1.321132196135e-11       1.825509692608e-12      -8.031129415639e-15 
   91       3.431958041628e-10       8.825282199488e-14      -2.445572048261e-12       3.296632056220e-16       1.284322610417e-11       1.783708268460e-12      -8.002581851977e-15 
   92       3.473754787108e-10       9.039302668414e-14      -2.534717376862e-12       3.369905683871e-16       1.248773752192e-11       1.743187357114e-12      -7.966344816937e-15 
   93       3.515853692705e-10       9.252887397958e-14      -2.624490648201e-12       3.444022787591e-16       1.214357093319e-11       1.703803393916e-12      -7.919351671900e-15 
   94       3.558255325064e-10       9.465847760954e-14      -2.714827825708e-12       3.518987856268e-16       1.181056442431e-11       1.665547680222e-12      -7.861814635918e-15 
   95       3.600962164352e-10       9.677995411947e-14      -2.805664732715e-12       3.594805736809e-16       1.148877814051e-11       1.628439410447e-12      -7.794891494008e-15 
   96       3.643975089792e-10       9.889139154143e-14      -2.896935911218e-12       3.671481540663e-16       1.117817290500e-11       1.592487556626e-12      -7.719862091147e-15 
   97       3.687293305502e-10       1.009908498665e-13      -2.988574641694e-12       3.749020649893e-16       1.087860641737e-11       1.557690460673e-12      -7.638131613662e-15 
   98       3.730914266322e-10       1.030763615172e-13      -3.080512962918e-12       3.827428723253e-16       1.058982945215e-11       1.524035426630e-12      -7.551233870627e-15 
   99       3.774833603648e-10       1.051459318200e-13      -3.172681691779e-12       3.906711702254e-16       1.031148205722e-11       1.491498312922e-12      -7.460834575254e-15 
  100       3.819045051269e-10       1.071975394775e-13      -3.265010443099e-12       3.986875817244e-16       1.004308975233e-11       1.460043124612e-12      -7.368734626295e-15 
  101       3.863540371194e-10       1.092291370414e-13      -3.357427649444e-12       4.067927593478e-16       9.784059727562e-12       1.429621605652e-12      -7.276873389428e-15 
  102       3.908309279489e-10       1.112386513842e-13      -3.449860580947e-12       4.149873857189e-16       9.533677041805e-12       1.400172831137e-12      -7.187331978658e-15 
  103       3.953339372106e-10       1.132239841722e-13      -3.542235365122e-12       4.232721741666e-16       9.291100821242e-12       1.371622799558e-12      -7.102336537709e-15 
  104       3.998618679289e-10       1.151830634379e-13      -3.634477560225e-12       4.316478459434e-16       9.055554507360e-12       1.343901323534e-12      -7.023773986168e-15 
  105       4.044143881500e-10       1.171140052153e-13      -3.726513920865e-12       4.401150570687e-16       8.826934057803e-12       1.316996178788e-12      -6.951657689696e-15 
  106       4.089913070243e-10       1.190149747214e-13      -3.818270908957e-12       4.486744626895e-16       8.605275199943e-12       1.290905543805e-12      -6.885459676800e-15 
  107       4.135923173863e-10       1.208841382276e-13      -3.909674187062e-12       4.573267399326e-16       8.390565069053e-12       1.265621139522e-12      -6.824577614475e-15 
