# Matter power spectrum P(k) at redshift z=99
# for k=1.00899e-05 to 203.102 h/Mpc,
# number of wavenumbers equal to 845
#    1:k (h/Mpc)              2:P (Mpc/h)^3        
       1.008985923246e-05       4.868329770438e-03 
       2.251775554681e-05       3.993230969876e-02 
       3.498636120247e-05       4.131473455731e-02 
       4.752690064658e-05       4.678301942974e-02 
       6.017107953230e-05       5.235999633614e-02 
       7.295134796122e-05       6.148015541753e-02 
       8.590117158737e-05       6.929585753235e-02 
       9.905531395762e-05       7.683673610616e-02 
       1.124501334903e-04       8.669990213174e-02 
       1.261238985241e-04       9.661835471033e-02 
       1.401171238832e-04       1.067408066118e-01 
       1.544729323814e-04       1.179905061866e-01 
       1.692374445844e-04       1.285067188636e-01 
       1.844601999316e-04       1.399748482071e-01 
       2.001946119095e-04       1.512303945286e-01 
       2.164984592990e-04       1.635543388076e-01 
       2.334344144703e-04       1.759450697461e-01 
       2.510706081373e-04       1.879856497505e-01 
       2.694812277303e-04       2.012314208153e-01 
       2.887471433953e-04       2.151216931570e-01 
       3.089565513139e-04       2.294841485136e-01 
       3.302056182976e-04       2.445072368815e-01 
       3.525991041420e-04       2.604176826812e-01 
       3.762509287930e-04       2.771416644597e-01 
       4.012846398372e-04       2.948534390847e-01 
       4.278337222871e-04       3.135445837422e-01 
       4.560416775835e-04       3.332962210293e-01 
       4.860617833145e-04       3.543212407510e-01 
       5.180564313506e-04       3.765775700565e-01 
       5.521959330390e-04       4.004339686294e-01 
       5.886566801031e-04       4.256858701196e-01 
       6.276185643138e-04       4.525953713129e-01 
       6.692615934693e-04       4.813018813231e-01 
       7.137617003222e-04       5.117998869911e-01 
       7.612858261435e-04       5.442762985658e-01 
       8.119864671933e-04       5.788136603304e-01 
       8.659959882004e-04       6.154261992473e-01 
       9.234211115549e-04       6.541690762227e-01 
       9.843380583383e-04       6.951322152794e-01 
       1.048788822492e-03       7.382592994499e-01 
       1.116778986862e-03       7.835150173029e-01 
       1.188277341593e-03       8.309029431281e-01 
       1.263217364035e-03       8.802973985967e-01 
       1.341500403710e-03       9.316070854337e-01 
       1.423000229794e-03       9.846812117885e-01 
       1.507568477172e-03       1.039489158078e+00 
       1.595040487038e-03       1.095774784758e+00 
       1.685241074673e-03       1.153415378121e+00 
       1.777989849548e-03       1.212274410021e+00 
       1.873105833077e-03       1.272190493690e+00 
       1.970411240942e-03       1.333003740596e+00 
       2.069734400901e-03       1.394561801566e+00 
       2.170911853969e-03       1.456741985478e+00 
       2.273789735124e-03       1.519412936360e+00 
       2.378224553043e-03       1.582430372432e+00 
       2.484083492891e-03       1.645704496919e+00 
       2.591244358339e-03       1.709108972581e+00 
       2.699595254278e-03       1.772552981249e+00 
       2.809034094327e-03       1.835944251472e+00 
       2.919467999818e-03       1.899201930640e+00 
       3.030812641171e-03       1.962253320805e+00 
       3.142991559080e-03       2.025016207556e+00 
       3.255935491967e-03       2.087434663550e+00 
       3.369581727509e-03       2.149452553716e+00 
       3.483873489548e-03       2.211013070581e+00 
       3.598759366763e-03       2.272066519221e+00 
       3.714192786088e-03       2.332572652882e+00 
       3.830131531369e-03       2.392492250022e+00 
       3.946537306183e-03       2.451783690900e+00 
       4.063375338686e-03       2.510422358946e+00 
       4.180614025754e-03       2.568372375252e+00 
       4.298224613405e-03       2.625613020319e+00 
       4.416180910359e-03       2.682119071591e+00 
       4.534459031676e-03       2.737868266685e+00 
       4.653037169509e-03       2.792845352763e+00 
       4.771895388214e-03       2.847033692647e+00 
       4.891015441268e-03       2.900419576977e+00 
       5.010380607654e-03       2.952990682062e+00 
       5.129975545600e-03       3.004736927790e+00 
       5.249786161774e-03       3.055651752737e+00 
       5.369799494223e-03       3.105727533207e+00 
       5.490003607537e-03       3.154959637639e+00 
       5.610387498875e-03       3.203342464790e+00 
       5.730941013670e-03       3.250877127069e+00 
       5.851654769906e-03       3.297562050914e+00 
       5.972520090068e-03       3.343394958144e+00 
       6.093528939880e-03       3.388378337700e+00 
       6.214673873133e-03       3.432513893899e+00 
       6.335947981903e-03       3.475806586193e+00 
       6.457344851613e-03       3.518257206026e+00 
       6.578858520406e-03       3.559870257381e+00 
       6.700483442374e-03       3.600650363145e+00 
       6.822214454238e-03       3.640606127780e+00 
       6.944046745134e-03       3.679739609148e+00 
       7.065975829162e-03       3.718062433737e+00 
       7.187997520434e-03       3.755582330698e+00 
       7.310107910369e-03       3.792302823977e+00 
       7.432303346994e-03       3.828228690500e+00 
       7.554580416073e-03       3.863374672383e+00 
       7.676935923868e-03       3.897750861429e+00 
       7.799366881390e-03       3.931359112955e+00 
       7.921870489981e-03       3.964206050009e+00 
       8.044444128110e-03       3.996313469023e+00 
       8.167085339271e-03       4.027678930931e+00 
       8.289791820870e-03       4.058316665170e+00 
       8.412561414027e-03       4.088238740204e+00 
       8.535392094189e-03       4.117443970040e+00 
       8.658281962499e-03       4.145950528609e+00 
       8.781229237845e-03       4.173764175079e+00 
       8.904232249532e-03       4.200896185626e+00 
       9.027289430517e-03       4.227353726324e+00 
       9.150399311170e-03       4.253144229237e+00 
       9.273560513504e-03       4.278284508797e+00 
       9.396771745844e-03       4.302773574850e+00 
       9.520031797891e-03       4.326619928248e+00 
       9.643339536152e-03       4.349846481099e+00 
       9.766693899711e-03       4.372442670566e+00 
       9.890093896300e-03       4.394427716879e+00 
       1.001353859866e-02       4.415809870959e+00 
       1.013702714118e-02       4.436598444756e+00 
       1.026055871672e-02       4.456791423621e+00 
       1.038413257374e-02       4.476404676743e+00 
       1.050774801356e-02       4.495446811501e+00 
       1.063140438788e-02       4.513917893550e+00 
       1.075510109639e-02       4.531834533018e+00 
       1.087883758462e-02       4.549200206219e+00 
       1.100261334193e-02       4.566018514066e+00 
       1.112642789957e-02       4.582302168392e+00 
       1.125028082899e-02       4.598051438855e+00 
       1.137417174014e-02       4.613283263876e+00 
       1.149810028000e-02       4.627988666683e+00 
       1.162206613114e-02       4.642187547275e+00 
       1.174606901039e-02       4.655880215844e+00 
       1.187010866765e-02       4.669078177391e+00 
       1.199418488471e-02       4.681781701952e+00 
       1.211829747421e-02       4.693995587598e+00 
       1.224244627863e-02       4.705733756910e+00 
       1.236663116941e-02       4.716992901985e+00 
       1.249085204607e-02       4.727792126035e+00 
       1.261510883545e-02       4.738120116220e+00 
       1.273940149094e-02       4.747998379657e+00 
       1.286372999182e-02       4.757421405630e+00 
       1.298809434267e-02       4.766397098850e+00 
       1.311249457272e-02       4.774932810174e+00 
       1.323693073542e-02       4.783033098338e+00 
       1.336140290784e-02       4.790702761110e+00 
       1.348591119034e-02       4.797951139841e+00 
       1.361045570605e-02       4.804781210869e+00 
       1.373503660061e-02       4.811194639733e+00 
       1.385965404174e-02       4.817198441764e+00 
       1.398430821901e-02       4.822799837306e+00 
       1.410899934352e-02       4.828000411838e+00 
       1.423372764771e-02       4.832811891387e+00 
       1.435849338511e-02       4.837233366617e+00 
       1.448329683018e-02       4.841272655484e+00 
       1.460813827812e-02       4.844933144300e+00 
       1.473301804481e-02       4.848219422620e+00 
       1.485793646664e-02       4.851136627438e+00 
       1.498289390044e-02       4.853692652754e+00 
       1.510789072347e-02       4.855889468033e+00 
       1.523292733332e-02       4.857733567659e+00 
       1.535800414793e-02       4.859227109201e+00 
       1.548312160558e-02       4.860374419370e+00 
       1.560828016494e-02       4.861187241744e+00 
       1.573348030509e-02       4.861657219345e+00 
       1.585872252561e-02       4.861811027506e+00 
       1.598400734663e-02       4.861638321834e+00 
       1.610933530897e-02       4.861130330847e+00 
       1.623470697422e-02       4.860313097282e+00 
       1.636012292492e-02       4.859192795355e+00 
       1.648558376469e-02       4.857753948320e+00 
       1.661109011841e-02       4.856017346837e+00 
       1.673664263240e-02       4.853984308364e+00 
       1.686224197463e-02       4.851655642645e+00 
       1.698788883495e-02       4.849034543524e+00 
       1.711358392534e-02       4.846137939801e+00 
       1.723932798012e-02       4.842946139472e+00 
       1.736512175629e-02       4.839501190288e+00 
       1.749096603375e-02       4.835766894228e+00 
       1.761686161566e-02       4.831772982487e+00 
       1.774280932873e-02       4.827504985369e+00 
       1.786881002356e-02       4.822986246018e+00 
       1.799486457501e-02       4.818210313740e+00 
       1.812097388257e-02       4.813184670686e+00 
       1.824713887072e-02       4.807913304716e+00 
       1.837336048938e-02       4.802394214727e+00 
       1.849963971429e-02       4.796636918523e+00 
       1.862597754748e-02       4.790643239000e+00 
       1.875237501771e-02       4.784420171042e+00 
       1.887883318094e-02       4.777959680552e+00 
       1.900535312085e-02       4.771296687709e+00 
       1.913193594933e-02       4.764406259535e+00 
       1.925858280700e-02       4.757290385129e+00 
       1.938529486380e-02       4.749966320774e+00 
       1.951207331950e-02       4.742428539792e+00 
       1.963891940434e-02       4.734691023651e+00 
       1.976583437961e-02       4.726748958803e+00 
       1.989281953829e-02       4.718612774000e+00 
       2.001987620571e-02       4.710279412566e+00 
       2.014700574018e-02       4.701759344192e+00 
       2.027420953374e-02       4.693035536103e+00 
       2.040148901283e-02       4.684151381460e+00 
       2.052884563906e-02       4.675072764173e+00 
       2.065628090997e-02       4.665817032031e+00 
       2.078379635978e-02       4.656385452183e+00 
       2.091139356027e-02       4.646789141318e+00 
       2.103907412157e-02       4.637018068711e+00 
       2.116683969302e-02       4.627090478949e+00 
       2.129469196411e-02       4.616995343666e+00 
       2.142263266535e-02       4.606752661087e+00 
       2.155066356926e-02       4.596350230182e+00 
       2.167878649131e-02       4.585789949774e+00 
       2.180700329099e-02       4.575079605851e+00 
       2.193531587278e-02       4.564231094195e+00 
       2.206372618728e-02       4.553242394807e+00 
       2.219223623229e-02       4.542104997585e+00 
       2.232084805397e-02       4.530846030740e+00 
       2.244956374803e-02       4.519438874274e+00 
       2.257838546090e-02       4.507907673270e+00 
       2.270731539105e-02       4.496249381663e+00 
       2.283635579024e-02       4.484462575743e+00 
       2.296550896486e-02       4.472562536627e+00 
       2.309477727734e-02       4.460537079532e+00 
       2.322416314755e-02       4.448397569164e+00 
       2.335366905427e-02       4.436141506438e+00 
       2.348329753672e-02       4.423778854967e+00 
       2.361305119611e-02       4.411309348926e+00 
       2.374293269725e-02       4.398733002813e+00 
       2.387294477028e-02       4.386054120235e+00 
       2.400309021230e-02       4.373275794336e+00 
       2.413337188923e-02       4.360396669384e+00 
       2.426379273761e-02       4.347428192204e+00 
       2.439435576651e-02       4.334366776784e+00 
       2.452506405949e-02       4.321214269215e+00 
       2.465592077667e-02       4.307975024108e+00 
       2.478692915676e-02       4.294651713344e+00 
       2.491809251927e-02       4.281244098212e+00 
       2.504941426679e-02       4.267759623022e+00 
       2.518089788722e-02       4.254195860992e+00 
       2.531254695627e-02       4.240563497438e+00 
       2.544436513988e-02       4.226845764848e+00 
       2.557635619681e-02       4.213065364185e+00 
       2.570852398133e-02       4.199213240280e+00 
       2.584087244594e-02       4.185295822124e+00 
       2.597340564424e-02       4.171317546523e+00 
       2.610612773389e-02       4.157275963794e+00 
       2.623904297966e-02       4.143172634958e+00 
       2.637215575665e-02       4.129013993465e+00 
       2.650547055353e-02       4.114799987899e+00 
       2.663899197597e-02       4.100530538280e+00 
       2.677272475021e-02       4.086211822532e+00 
       2.690667372668e-02       4.071842254425e+00 
       2.704084388387e-02       4.057426011307e+00 
       2.717524033223e-02       4.042962331583e+00 
       2.730986831833e-02       4.028456641235e+00 
       2.744473322907e-02       4.013908012770e+00 
       2.757984059617e-02       3.999320829382e+00 
       2.771519610072e-02       3.984692800920e+00 
       2.785080557800e-02       3.970029195824e+00 
       2.798667502244e-02       3.955331053721e+00 
       2.812281059279e-02       3.940599557641e+00 
       2.825921861753e-02       3.925836227364e+00 
       2.839590560043e-02       3.911042811336e+00 
       2.853287822642e-02       3.896221334543e+00 
       2.867014336763e-02       3.881372906152e+00 
       2.880770808975e-02       3.866499848571e+00 
       2.894557965859e-02       3.851602312084e+00 
       2.908376554696e-02       3.836682359810e+00 
       2.922227344183e-02       3.821743286208e+00 
       2.936111125182e-02       3.806784186671e+00 
       2.950028711498e-02       3.791805096252e+00 
       2.963980940692e-02       3.776811305353e+00 
       2.977968674934e-02       3.761801666537e+00 
       2.991992801888e-02       3.746778247233e+00 
       3.006054235642e-02       3.731743325973e+00 
       3.020153917674e-02       3.716693921830e+00 
       3.034292817872e-02       3.701636919954e+00 
       3.048471935591e-02       3.686569559729e+00 
       3.062692300766e-02       3.671496520242e+00 
       3.076954975073e-02       3.656413519282e+00 
       3.091261053153e-02       3.641327610349e+00 
       3.105611663883e-02       3.626234770715e+00 
       3.120007971717e-02       3.611139451240e+00 
       3.134451178094e-02       3.596041521291e+00 
       3.148942522908e-02       3.580941604962e+00 
       3.163483286058e-02       3.565840297665e+00 
       3.178074789075e-02       3.550740159323e+00 
       3.192718396829e-02       3.535641396917e+00 
       3.207415519325e-02       3.520544351370e+00 
       3.222167613596e-02       3.505448997475e+00 
       3.236976185693e-02       3.490356582643e+00 
       3.251842792776e-02       3.475271205506e+00 
       3.266769045326e-02       3.460188856751e+00 
       3.281756609471e-02       3.445113577625e+00 
       3.296807209441e-02       3.430043655232e+00 
       3.311922630162e-02       3.414981645136e+00 
       3.327104719986e-02       3.399926021547e+00 
       3.342355393590e-02       3.384877431027e+00 
       3.357676635028e-02       3.369839763005e+00 
       3.373070500968e-02       3.354807770778e+00 
       3.388539124115e-02       3.339788097553e+00 
       3.404084716838e-02       3.324776489731e+00 
       3.419709575014e-02       3.309774958359e+00 
       3.435416082110e-02       3.294787480319e+00 
       3.451206713503e-02       3.279809806746e+00 
       3.467084041087e-02       3.264842426102e+00 
       3.483050738153e-02       3.249885693842e+00 
       3.499109584590e-02       3.234940718654e+00 
       3.515263472420e-02       3.220009716386e+00 
       3.531515411689e-02       3.205089014434e+00 
       3.547868536756e-02       3.190181114366e+00 
       3.564326112997e-02       3.175283490061e+00 
       3.580891543966e-02       3.160399018672e+00 
       3.597568379052e-02       3.145527868118e+00 
       3.614360321665e-02       3.130668869787e+00 
       3.631271238005e-02       3.115817885839e+00 
       3.648305166451e-02       3.100981755518e+00 
       3.665466327647e-02       3.086157831301e+00 
       3.682759135313e-02       3.071343595745e+00 
       3.700188207881e-02       3.056538848508e+00 
       3.717758380999e-02       3.041745665782e+00 
       3.735474721006e-02       3.026962115892e+00 
       3.753342539455e-02       3.012190641138e+00 
       3.771367408789e-02       2.997425227286e+00 
       3.789555179276e-02       2.982669450874e+00 
       3.807911997330e-02       2.967921797435e+00 
       3.826444325354e-02       2.953181802939e+00 
       3.845158963247e-02       2.938447849156e+00 
       3.864063071773e-02       2.923718582377e+00 
       3.883164197941e-02       2.908995342059e+00 
       3.902470302655e-02       2.894274257117e+00 
       3.921989790844e-02       2.879557775429e+00 
       3.941731544346e-02       2.864841222186e+00 
       3.961704957874e-02       2.850125270077e+00 
       3.981919978381e-02       2.835410287529e+00 
       4.002387148228e-02       2.820691251915e+00 
       4.023117652610e-02       2.805968947702e+00 
       4.044123371716e-02       2.791241319421e+00 
       4.065416938230e-02       2.776506602084e+00 
       4.087011800810e-02       2.761764670653e+00 
       4.108922294299e-02       2.747011511133e+00 
       4.131163717545e-02       2.732245953825e+00 
       4.153752419801e-02       2.717464253345e+00 
       4.176705896879e-02       2.702667650718e+00 
       4.200042898355e-02       2.687849416330e+00 
       4.223783547389e-02       2.673007590222e+00 
       4.247949474925e-02       2.658145125275e+00 
       4.272563970381e-02       2.643251658528e+00 
       4.297652151252e-02       2.628325185480e+00 
       4.323241154501e-02       2.613365028012e+00 
       4.349360353122e-02       2.598367803348e+00 
       4.376041601845e-02       2.583325802555e+00 
       4.403319516735e-02       2.568236631917e+00 
       4.431231794305e-02       2.553095815195e+00 
       4.459819576870e-02       2.537900004819e+00 
       4.489127872208e-02       2.522640593393e+00 
       4.519206037240e-02       2.507310914502e+00 
       4.550108337449e-02       2.491904452986e+00 
       4.581894596305e-02       2.476417891566e+00 
       4.614630952020e-02       2.460839152241e+00 
       4.648390742907e-02       2.445158926719e+00 
       4.683255547441e-02       2.429370787338e+00 
       4.719316411280e-02       2.413467014035e+00 
       4.756675301229e-02       2.397434433373e+00 
       4.795446835950e-02       2.381263600519e+00 
       4.835760355679e-02       2.364942914979e+00 
       4.877762409092e-02       2.348423113163e+00 
       4.921619755703e-02       2.331692166523e+00 
       4.967523007970e-02       2.314744020210e+00 
       5.015691069999e-02       2.297538304596e+00 
       5.066376571099e-02       2.280054689988e+00 
       5.119872543759e-02       2.262245334053e+00 
       5.176520658204e-02       2.244070587932e+00 
       5.236721398511e-02       2.225473874800e+00 
       5.300946643626e-02       2.206380566732e+00 
       5.369755186298e-02       2.186707475187e+00 
       5.443811750858e-02       2.166342991275e+00 
       5.523909986108e-02       2.145142700069e+00 
       5.610999569786e-02       2.122922187790e+00 
       5.706216693470e-02       2.099432934839e+00 
       5.810915311482e-02       2.074342814836e+00 
