# Matter power spectrum P(k) at redshift z=99
# for k=1.00899e-05 to 203.102 h/Mpc,
# number of wavenumbers equal to 845
#    1:k (h/Mpc)              2:P (Mpc/h)^3        
       1.008985923246e-05       4.867999182562e-03 
       2.251775554681e-05       3.993289709930e-02 
       3.498636120247e-05       4.131518407938e-02 
       4.752690064658e-05       4.678345321625e-02 
       6.017107953230e-05       5.236044407106e-02 
       7.295134796122e-05       6.148064957343e-02 
       8.590117158737e-05       6.929639523314e-02 
       9.905531395762e-05       7.683732046788e-02 
       1.124501334903e-04       8.670055546369e-02 
       1.261238985241e-04       9.661906935468e-02 
       1.401171238832e-04       1.067415748583e-01 
       1.544729323814e-04       1.179913942616e-01 
       1.692374445844e-04       1.285080089015e-01 
       1.844601999316e-04       1.399757893083e-01 
       2.001946119095e-04       1.512314845312e-01 
       2.164984592990e-04       1.635555024845e-01 
       2.334344144703e-04       1.759463184642e-01 
       2.510706081373e-04       1.879869814749e-01 
       2.694812277303e-04       2.012328438740e-01 
       2.887471433953e-04       2.151232121859e-01 
       3.089565513139e-04       2.294857670225e-01 
       3.302056182976e-04       2.445089595325e-01 
       3.525991041420e-04       2.604195157389e-01 
       3.762509287930e-04       2.771436136760e-01 
       4.012846398372e-04       2.948555112938e-01 
       4.278337222871e-04       3.135467860065e-01 
       4.560416775835e-04       3.332985597711e-01 
       4.860617833145e-04       3.543237262623e-01 
       5.180564313506e-04       3.765802093727e-01 
       5.521959330390e-04       4.004367723703e-01 
       5.886566801031e-04       4.256888534395e-01 
       6.276185643138e-04       4.525985413719e-01 
       6.692615934693e-04       4.813052606888e-01 
       7.137617003222e-04       5.118034671107e-01 
       7.612858261435e-04       5.442801167739e-01 
       8.119864671933e-04       5.788177093077e-01 
       8.659959882004e-04       6.154305021301e-01 
       9.234211115549e-04       6.541736558450e-01 
       9.843380583383e-04       6.951370824770e-01 
       1.048788822492e-03       7.382644634007e-01 
       1.116778986862e-03       7.835204991465e-01 
       1.188277341593e-03       8.309087568559e-01 
       1.263217364035e-03       8.803035576942e-01 
       1.341500403710e-03       9.316136030755e-01 
       1.423000229794e-03       9.846880942555e-01 
       1.507568477172e-03       1.039496430224e+00 
       1.595040487038e-03       1.095782451097e+00 
       1.685241074673e-03       1.153423447896e+00 
       1.777989849548e-03       1.212282890820e+00 
       1.873105833077e-03       1.272199394687e+00 
       1.970411240942e-03       1.333013066791e+00 
       2.069734400901e-03       1.394571558140e+00 
       2.170911853969e-03       1.456752178458e+00 
       2.273789735124e-03       1.519423567114e+00 
       2.378224553043e-03       1.582441443986e+00 
       2.484083492891e-03       1.645716011095e+00 
       2.591244358339e-03       1.709120930295e+00 
       2.699595254278e-03       1.772565382710e+00 
       2.809034094327e-03       1.835957096350e+00 
       2.919467999818e-03       1.899215217994e+00 
       3.030812641171e-03       1.962267049125e+00 
       3.142991559080e-03       2.025030374789e+00 
       3.255935491967e-03       2.087449267295e+00 
       3.369581727509e-03       2.149467591079e+00 
       3.483873489548e-03       2.211028538441e+00 
       3.598759366763e-03       2.272082413915e+00 
       3.714192786088e-03       2.332588970578e+00 
       3.830131531369e-03       2.392508986579e+00 
       3.946537306183e-03       2.451800841896e+00 
       4.063375338686e-03       2.510439919878e+00 
       4.180614025754e-03       2.568390341061e+00 
       4.298224613405e-03       2.625631386118e+00 
       4.416180910359e-03       2.682137832186e+00 
       4.534459031676e-03       2.737887416773e+00 
       4.653037169509e-03       2.792864886902e+00 
       4.771895388214e-03       2.847053605277e+00 
       4.891015441268e-03       2.900439862256e+00 
       5.010380607654e-03       2.953011334637e+00 
       5.129975545600e-03       3.004757941661e+00 
       5.249786161774e-03       3.055673122051e+00 
       5.369799494223e-03       3.105749252057e+00 
       5.490003607537e-03       3.154981700085e+00 
       5.610387498875e-03       3.203364864851e+00 
       5.730941013670e-03       3.250899858774e+00 
       5.851654769906e-03       3.297585107394e+00 
       5.972520090068e-03       3.343418334077e+00 
       6.093528939880e-03       3.388402028517e+00 
       6.214673873133e-03       3.432537892338e+00 
       6.335947981903e-03       3.475830886390e+00 
       6.457344851613e-03       3.518281804243e+00 
       6.578858520406e-03       3.559895143498e+00 
       6.700483442374e-03       3.600675533217e+00 
       6.822214454238e-03       3.640631576146e+00 
       6.944046745134e-03       3.679765329979e+00 
       7.065975829162e-03       3.718088421338e+00 
       7.187997520434e-03       3.755608579472e+00 
       7.310107910369e-03       3.792329328203e+00 
       7.432303346994e-03       3.828255444607e+00 
       7.554580416073e-03       3.863401670998e+00 
       7.676935923868e-03       3.897778098988e+00 
       7.799366881390e-03       3.931386584062e+00 
       7.921870489981e-03       3.964233749321e+00 
       8.044444128110e-03       3.996341391788e+00 
       8.167085339271e-03       4.027707071053e+00 
       8.289791820870e-03       4.058345017949e+00 
       8.412561414027e-03       4.088267300724e+00 
       8.535392094189e-03       4.117472733048e+00 
       8.658281962499e-03       4.145979489410e+00 
       8.781229237845e-03       4.173793325748e+00 
       8.904232249532e-03       4.200925526938e+00 
       9.027289430517e-03       4.227383250699e+00 
       9.150399311170e-03       4.253173932230e+00 
       9.273560513504e-03       4.278314386375e+00 
       9.396771745844e-03       4.302803621081e+00 
       9.520031797891e-03       4.326655642414e+00 
       9.643339536152e-03       4.349876852548e+00 
       9.766693899711e-03       4.372473207237e+00 
       9.890093896300e-03       4.394458395972e+00 
       1.001353859866e-02       4.415840697423e+00 
       1.013702714118e-02       4.436629406590e+00 
       1.026055871672e-02       4.456822532434e+00 
       1.038413257374e-02       4.476435920532e+00 
       1.050774801356e-02       4.495478186403e+00 
       1.063140438788e-02       4.513949393554e+00 
       1.075510109639e-02       4.531866157495e+00 
       1.087883758462e-02       4.549231950082e+00 
       1.100261334193e-02       4.566050373159e+00 
       1.112642789957e-02       4.582334134588e+00 
       1.125028082899e-02       4.598083519641e+00 
       1.137417174014e-02       4.613315446430e+00 
       1.149810028000e-02       4.628020949422e+00 
       1.162206613114e-02       4.642222177421e+00 
       1.174606901039e-02       4.655912688483e+00 
       1.187010866765e-02       4.669109024153e+00 
       1.199418488471e-02       4.681814350720e+00 
       1.211829747421e-02       4.694028319185e+00 
       1.224244627863e-02       4.705766568046e+00 
       1.236663116941e-02       4.717025790907e+00 
       1.249085204607e-02       4.727825086037e+00 
       1.261510883545e-02       4.738153145918e+00 
       1.273940149094e-02       4.748030789790e+00 
       1.286372999182e-02       4.757454564459e+00 
       1.298809434267e-02       4.766430317766e+00 
       1.311249457272e-02       4.774966085928e+00 
       1.323693073542e-02       4.783067377169e+00 
       1.336140290784e-02       4.790736142123e+00 
       1.348591119034e-02       4.797986815048e+00 
       1.361045570605e-02       4.804814683775e+00 
       1.373503660061e-02       4.811226580700e+00 
       1.385965404174e-02       4.817232347409e+00 
       1.398430821901e-02       4.822833427820e+00 
       1.410899934352e-02       4.828034039063e+00 
       1.423372764771e-02       4.832845546123e+00 
       1.435849338511e-02       4.837267049668e+00 
       1.448329683018e-02       4.841306362332e+00 
       1.460813827812e-02       4.844966874871e+00 
       1.473301804481e-02       4.848253173070e+00 
       1.485793646664e-02       4.851173620280e+00 
       1.498289390044e-02       4.853726435829e+00 
       1.510789072347e-02       4.855923262958e+00 
       1.523292733332e-02       4.857767372385e+00 
       1.535800414793e-02       4.859260921261e+00 
       1.548312160558e-02       4.860408236329e+00 
       1.560828016494e-02       4.861220621054e+00 
       1.573348030509e-02       4.861691038992e+00 
       1.585872252561e-02       4.861844845062e+00 
       1.598400734663e-02       4.861672135010e+00 
       1.610933530897e-02       4.861164354809e+00 
       1.623470697422e-02       4.860346894797e+00 
       1.636012292492e-02       4.859226581843e+00 
       1.648558376469e-02       4.857787721530e+00 
       1.661109011841e-02       4.856051104680e+00 
       1.673664263240e-02       4.854018048754e+00 
       1.686224197463e-02       4.851689010219e+00 
       1.698788883495e-02       4.849067833411e+00 
       1.711358392534e-02       4.846171615569e+00 
       1.723932798012e-02       4.842979789648e+00 
       1.736512175629e-02       4.839534813105e+00 
       1.749096603375e-02       4.835800487649e+00 
       1.761686161566e-02       4.831806544697e+00 
       1.774280932873e-02       4.827538514491e+00 
       1.786881002356e-02       4.823019740188e+00 
       1.799486457501e-02       4.818245772313e+00 
       1.812097388257e-02       4.813218089694e+00 
       1.824713887072e-02       4.807946683564e+00 
       1.837336048938e-02       4.802427551666e+00 
       1.849963971429e-02       4.796670211883e+00 
       1.862597754748e-02       4.790676487130e+00 
       1.875237501771e-02       4.784453372328e+00 
       1.887883318094e-02       4.777992833248e+00 
       1.900535312085e-02       4.771329790573e+00 
       1.913193594933e-02       4.764439310883e+00 
       1.925858280700e-02       4.757323383388e+00 
       1.938529486380e-02       4.749999235336e+00 
       1.951207331950e-02       4.742461427464e+00 
       1.963891940434e-02       4.734723853887e+00 
       1.976583437961e-02       4.726781730171e+00 
       1.989281953829e-02       4.718645485147e+00 
       2.001987620571e-02       4.710312062100e+00 
       2.014700574018e-02       4.701791930831e+00 
       2.027420953374e-02       4.693068058404e+00 
       2.040148901283e-02       4.684183838329e+00 
       2.052884563906e-02       4.675105154232e+00 
       2.065628090997e-02       4.665849354057e+00 
       2.078379635978e-02       4.656412185081e+00 
       2.091139356027e-02       4.646811903640e+00 
       2.103907412157e-02       4.637050179423e+00 
       2.116683969302e-02       4.627122516938e+00 
       2.129469196411e-02       4.617032876983e+00 
       2.142263266535e-02       4.606784550270e+00 
       2.155066356926e-02       4.596382043379e+00 
       2.167878649131e-02       4.585823735559e+00 
       2.180700329099e-02       4.575111263708e+00 
       2.193531587278e-02       4.564262672976e+00 
       2.206372618728e-02       4.553269968960e+00 
       2.219223623229e-02       4.542141903669e+00 
       2.232084805397e-02       4.530871990633e+00 
       2.244956374803e-02       4.519471999848e+00 
       2.257838546090e-02       4.507938841905e+00 
       2.270731539105e-02       4.496280465553e+00 
       2.283635579024e-02       4.484493573966e+00 
       2.296550896486e-02       4.472588177613e+00 
       2.309477727734e-02       4.460567904042e+00 
       2.322416314755e-02       4.448428305620e+00 
       2.335366905427e-02       4.436172154009e+00 
       2.348329753672e-02       4.423809412914e+00 
       2.361305119611e-02       4.411339816508e+00 
       2.374293269725e-02       4.398763379302e+00 
       2.387294477028e-02       4.386084404849e+00 
       2.400309021230e-02       4.373305986533e+00 
       2.413337188923e-02       4.360427257609e+00 
       2.426379273761e-02       4.347458197394e+00 
       2.439435576651e-02       4.334396687558e+00 
       2.452506405949e-02       4.321244007821e+00 
       2.465592077667e-02       4.308004026664e+00 
       2.478692915676e-02       4.294681337166e+00 
       2.491809251927e-02       4.281273625211e+00 
       2.504941426679e-02       4.267787349452e+00 
       2.518089788722e-02       4.254225192757e+00 
       2.531254695627e-02       4.240592731576e+00 
       2.544436513988e-02       4.226874899338e+00 
       2.557635619681e-02       4.213094282854e+00 
       2.570852398133e-02       4.199242171530e+00 
       2.584087244594e-02       4.185324463527e+00 
       2.597340564424e-02       4.171346986442e+00 
       2.610612773389e-02       4.157304596931e+00 
       2.623904297966e-02       4.143201643435e+00 
       2.637215575665e-02       4.129042536828e+00 
       2.650547055353e-02       4.114827418175e+00 
       2.663899197597e-02       4.100558762755e+00 
       2.677272475021e-02       4.086239944001e+00 
       2.690667372668e-02       4.071872730928e+00 
       2.704084388387e-02       4.057453925942e+00 
       2.717524033223e-02       4.042990142224e+00 
       2.730986831833e-02       4.028484347628e+00 
       2.744473322907e-02       4.013935615898e+00 
       2.757984059617e-02       3.999348037244e+00 
       2.771519610072e-02       3.984720192860e+00 
       2.785080557800e-02       3.970056482453e+00 
       2.798667502244e-02       3.955358241185e+00 
       2.812281059279e-02       3.940626633002e+00 
       2.825921861753e-02       3.925863196582e+00 
       2.839590560043e-02       3.911069839935e+00 
       2.853287822642e-02       3.896248091388e+00 
       2.867014336763e-02       3.881399556469e+00 
       2.880770808975e-02       3.866526392201e+00 
       2.894557965859e-02       3.851628748875e+00 
       2.908376554696e-02       3.836709024875e+00 
       2.922227344183e-02       3.821769508938e+00 
       2.936111125182e-02       3.806810302304e+00 
       2.950028711498e-02       3.791831104381e+00 
       2.963980940692e-02       3.776837206027e+00 
       2.977968674934e-02       3.761827459672e+00 
       2.991992801888e-02       3.746803932750e+00 
       3.006054235642e-02       3.731768903810e+00 
       3.020153917674e-02       3.716719391957e+00 
       3.034292817872e-02       3.701662275059e+00 
       3.048471935591e-02       3.686594810326e+00 
       3.062692300766e-02       3.671521666747e+00 
       3.076954975073e-02       3.656439036421e+00 
       3.091261053153e-02       3.641352566344e+00 
       3.105611663883e-02       3.626259217012e+00 
       3.120007971717e-02       3.611163324673e+00 
       3.134451178094e-02       3.596066127755e+00 
       3.148942522908e-02       3.580966104426e+00 
       3.163483286058e-02       3.565864690209e+00 
       3.178074789075e-02       3.550764443236e+00 
       3.192718396829e-02       3.535664872256e+00 
       3.207415519325e-02       3.520567807341e+00 
       3.222167613596e-02       3.505473357265e+00 
       3.236976185693e-02       3.490380462869e+00 
       3.251842792776e-02       3.475294948406e+00 
       3.266769045326e-02       3.460212498286e+00 
       3.281756609471e-02       3.445137236117e+00 
       3.296807209441e-02       3.430067074996e+00 
       3.311922630162e-02       3.415005049753e+00 
       3.327104719986e-02       3.399948029979e+00 
       3.342355393590e-02       3.384901387654e+00 
       3.357676635028e-02       3.369862752974e+00 
       3.373070500968e-02       3.354830776901e+00 
       3.388539124115e-02       3.339810872487e+00 
       3.404084716838e-02       3.324799755352e+00 
       3.419709575014e-02       3.309797518884e+00 
       3.435416082110e-02       3.294809933889e+00 
       3.451206713503e-02       3.279832159431e+00 
       3.467084041087e-02       3.264865248749e+00 
       3.483050738153e-02       3.249907826851e+00 
       3.499109584590e-02       3.234962607840e+00 
       3.515263472420e-02       3.220031635738e+00 
       3.531515411689e-02       3.205110826554e+00 
       3.547868536756e-02       3.190202821023e+00 
       3.564326112997e-02       3.175305090390e+00 
       3.580891543966e-02       3.160420512750e+00 
       3.597568379052e-02       3.145549250664e+00 
       3.614360321665e-02       3.130690151671e+00 
       3.631271238005e-02       3.115839063702e+00 
       3.648305166451e-02       3.101002828055e+00 
       3.665466327647e-02       3.086176641861e+00 
       3.682759135313e-02       3.071364430236e+00 
       3.700188207881e-02       3.056559601321e+00 
       3.717758380999e-02       3.041766313793e+00 
       3.735474721006e-02       3.026982655499e+00 
       3.753342539455e-02       3.012211077304e+00 
       3.771367408789e-02       2.997445558120e+00 
       3.789555179276e-02       2.982689441644e+00 
       3.807911997330e-02       2.967942286192e+00 
       3.826444325354e-02       2.953201818110e+00 
       3.845158963247e-02       2.938467760158e+00 
       3.864063071773e-02       2.923737221427e+00 
       3.883164197941e-02       2.909015042085e+00 
       3.902470302655e-02       2.894293850770e+00 
       3.921989790844e-02       2.879577264941e+00 
       3.941731544346e-02       2.864860606558e+00 
       3.961704957874e-02       2.850144086534e+00 
       3.981919978381e-02       2.835428327310e+00 
       4.002387148228e-02       2.820710320923e+00 
       4.023117652610e-02       2.805987920598e+00 
       4.044123371716e-02       2.791259333008e+00 
       4.065416938230e-02       2.776525357293e+00 
       4.087011800810e-02       2.761783972550e+00 
       4.108922294299e-02       2.747030123158e+00 
       4.131163717545e-02       2.732264390702e+00 
       4.153752419801e-02       2.717481894498e+00 
       4.176705896879e-02       2.702685874984e+00 
       4.200042898355e-02       2.687867112806e+00 
       4.223783547389e-02       2.673025603140e+00 
       4.247949474925e-02       2.658163028353e+00 
       4.272563970381e-02       2.643269460638e+00 
       4.297652151252e-02       2.628342879143e+00 
       4.323241154501e-02       2.613382638623e+00 
       4.349360353122e-02       2.598385281942e+00 
       4.376041601845e-02       2.583343118610e+00 
       4.403319516735e-02       2.568253894159e+00 
       4.431231794305e-02       2.553112968725e+00 
       4.459819576870e-02       2.537917049222e+00 
       4.489127872208e-02       2.522656140864e+00 
       4.519206037240e-02       2.507327739000e+00 
       4.550108337449e-02       2.491919899065e+00 
       4.581894596305e-02       2.476434493078e+00 
       4.614630952020e-02       2.460855641866e+00 
       4.648390742907e-02       2.445175093797e+00 
       4.683255547441e-02       2.429387050202e+00 
       4.719316411280e-02       2.413484637286e+00 
       4.756675301229e-02       2.397451758546e+00 
       4.795446835950e-02       2.381277732095e+00 
       4.835760355679e-02       2.364958714882e+00 
       4.877762409092e-02       2.348438487566e+00 
       4.921619755703e-02       2.331707721362e+00 
       4.967523007970e-02       2.314759730493e+00 
       5.015691069999e-02       2.297553607070e+00 
       5.066376571099e-02       2.280069868022e+00 
       5.119872543759e-02       2.262260381316e+00 
       5.176520658204e-02       2.244085501928e+00 
       5.236721398511e-02       2.225488651940e+00 
       5.300946643626e-02       2.206395202921e+00 
       5.369755186298e-02       2.186721965749e+00 
       5.443811750858e-02       2.166357275970e+00 
       5.523909986108e-02       2.145156881375e+00 
       5.610999569786e-02       2.122936202957e+00 
       5.706216693470e-02       2.099446728419e+00 
       5.810915311482e-02       2.074356464925e+00 
