# dimensionless total lensed [l(l+1)/2pi] C_l's
# for l=2 to 2500, i.e. number of multipoles equal to 2499
#
# -> if you prefer output in CAMB/HealPix/LensPix units/order, set 'format' to 'camb' in input file
# -> if you don't want to see such a header, set 'headers' to 'no' in input file
# -> for CMB lensing (phi), these are C_l^phi-phi for the lensing potential.
#    Remember the conversion factors:
#    C_l^dd (deflection) = l(l+1) C_l^phi-phi
#    C_l^gg (shear/convergence) = 1/4 (l(l+1))^2 C_l^phi-phi
#
# 1:l     2:TT                     3:EE                     4:TE                     5:BB                     6:phiphi                 7:TPhi                   8:Ephi               
    2       1.513666121324e-10       4.794199770693e-15       3.799587379710e-13       2.253247245787e-19       8.309239401842e-09       5.059278265072e-10      -2.012685963099e-12 
    3       1.417630412206e-10       6.054677442440e-15       4.281339220024e-13       4.507493863998e-19       5.130015643873e-09       3.573190361891e-10      -1.512241765175e-12 
    4       1.331041007270e-10       5.149039855977e-15       3.998184205864e-13       7.514689616783e-19       3.573570863004e-09       2.695897051991e-10      -9.768090511892e-13 
    5       1.266677755858e-10       3.373386892959e-15       3.391796174154e-13       1.127610922528e-18       2.668868611714e-09       2.123213406835e-10      -5.310375726760e-13 
    6       1.222182043822e-10       1.856596526492e-15       2.715919941484e-13       1.579329782631e-18       2.084789409285e-09       1.723419452344e-10      -2.072614185524e-13 
    7       1.192682504813e-10       9.992250131150e-16       2.117268896236e-13       2.106804102513e-18       1.680723912411e-09       1.430980696220e-10      -5.087609253346e-15 
    8       1.174594271077e-10       6.511410273904e-16       1.659110141207e-13       2.710233108260e-18       1.387274684948e-09       1.209826537930e-10       9.391204389094e-14 
    9       1.164932450600e-10       5.242431461624e-16       1.354213264824e-13       3.389833026555e-18       1.166773561553e-09       1.038449802897e-10       1.170812430573e-13 
   10       1.161220908207e-10       4.430333690035e-16       1.186567772252e-13       4.145833246031e-18       9.966920685708e-10       9.028490420104e-11       9.396043330271e-14 
   11       1.162497851487e-10       3.698741337519e-16       1.125854700058e-13       4.978472418060e-18       8.432970157638e-10       7.969011055553e-11       5.145282493775e-14 
   12       1.167304062802e-10       3.230975355264e-16       1.137813305633e-13       5.887994609270e-18       7.367630027275e-10       7.044010159180e-11       8.505607211361e-15 
   13       1.174942256833e-10       3.112608190508e-16       1.192705345721e-13       6.874645613262e-18       6.493082457189e-10       6.289715963109e-11      -2.257423630031e-14 
   14       1.184683935127e-10       3.231382930665e-16       1.268694578967e-13       7.938669520486e-18       5.765452852401e-10       5.631062614012e-11      -3.808027612128e-14 
   15       1.196504820564e-10       3.467124767442e-16       1.351596807743e-13       9.080305633343e-18       5.152981200813e-10       5.077385006470e-11      -3.911820030507e-14 
   16       1.209807723965e-10       3.813880044493e-16       1.435370028716e-13       1.029978579875e-17       4.632245733165e-10       4.602382173899e-11      -3.059075370341e-14 
   17       1.224491290535e-10       4.337948119858e-16       1.519032451908e-13       1.159733221330e-17       4.185552119208e-10       4.189554549921e-11      -1.835763939568e-14 
   18       1.240074107626e-10       5.088691633956e-16       1.604988310423e-13       1.297315552887e-17       3.797866882984e-10       3.827304936054e-11      -7.625000872007e-15 
   19       1.256671537418e-10       6.063651076427e-16       1.695645432098e-13       1.442745473494e-17       3.463006118747e-10       3.511654709884e-11      -8.588792365265e-16 
   20       1.274072281140e-10       7.237370735941e-16       1.792806156658e-13       1.596041421106e-17       3.168092964098e-10       3.233207449737e-11       6.140712746911e-16 
   21       1.292338363775e-10       8.603806932646e-16       1.896004815725e-13       1.757220679691e-17       2.908495218911e-10       2.986831864755e-11      -2.208169111932e-15 
   22       1.311284846562e-10       1.015946860998e-15       2.003021769258e-13       1.926299054171e-17       2.677993891000e-10       2.764891225242e-11      -7.116134300323e-15 
   23       1.330892084019e-10       1.190202700241e-15       2.109462483437e-13       2.103291330257e-17       2.473420356626e-10       2.565111893322e-11      -1.224152980342e-14 
   24       1.350989824730e-10       1.382871251564e-15       2.209896916003e-13       2.288210944025e-17       2.290049272163e-10       2.384714657842e-11      -1.576019663761e-14 
   25       1.371686919431e-10       1.594497694332e-15       2.301617034888e-13       2.481070619369e-17       2.125723332832e-10       2.222953605983e-11      -1.704112860793e-14 
   26       1.392989348121e-10       1.826092480094e-15       2.382867528140e-13       2.681881969397e-17       1.977466892434e-10       2.077872819670e-11      -1.603219053907e-14 
   27       1.414755172842e-10       2.079712453868e-15       2.452972420681e-13       2.890656101122e-17       1.843500343506e-10       1.946635529234e-11      -1.354584832892e-14 
   28       1.436715968274e-10       2.357729112095e-15       2.511877102222e-13       3.107403344159e-17       1.721513244451e-10       1.825436139533e-11      -1.074031299317e-14 
   29       1.458973401986e-10       2.661588662546e-15       2.560236453145e-13       3.332134198987e-17       1.610881946912e-10       1.714159683024e-11      -8.251378280971e-15 
   30       1.481637612063e-10       2.992434473458e-15       2.599284003294e-13       3.564858569178e-17       1.510418029027e-10       1.612989825604e-11      -6.645700103838e-15 
   31       1.504708592026e-10       3.351339614995e-15       2.630271340094e-13       3.805585757388e-17       1.418071760702e-10       1.521152245997e-11      -6.414030264721e-15 
   32       1.528210290018e-10       3.739222588966e-15       2.652641879643e-13       4.054325606910e-17       1.333365476195e-10       1.437602158520e-11      -7.275761860197e-15 
   33       1.552078274045e-10       4.156885495096e-15       2.665160841362e-13       4.311087787239e-17       1.255699336210e-10       1.360397630043e-11      -8.597302238909e-15 
   34       1.576179843540e-10       4.605083716190e-15       2.666415491139e-13       4.575881646898e-17       1.183985620536e-10       1.287234274447e-11      -9.698990944404e-15 
   35       1.600559352135e-10       5.084724155030e-15       2.654983271034e-13       4.848716699437e-17       1.117856685511e-10       1.218305229033e-11      -1.034771708279e-14 
   36       1.625261058365e-10       5.596728199149e-15       2.629295385885e-13       5.129602337757e-17       1.056781498851e-10       1.154359057224e-11      -1.043002827573e-14 
   37       1.650279310354e-10       6.141962527039e-15       2.587916648128e-13       5.418547614542e-17       9.999646400143e-11       1.095829306833e-11      -9.880238587397e-15 
   38       1.675638731077e-10       6.721192300421e-15       2.530708281946e-13       5.715560855186e-17       9.472588488559e-11       1.042527869535e-11      -8.880163771558e-15 
   39       1.701328226148e-10       7.335105566153e-15       2.458056239074e-13       6.020649942220e-17       8.984964674929e-11       9.937947188383e-12      -7.730219054219e-15 
   40       1.727271139469e-10       7.984320048891e-15       2.370577889231e-13       6.333822433686e-17       8.532118699659e-11       9.485347914016e-12      -6.801784823159e-15 
   41       1.753368559648e-10       8.669425871433e-15       2.268892692951e-13       6.655085186965e-17       8.108035470584e-11       9.055481409872e-12      -6.434832964807e-15 
   42       1.779661930365e-10       9.391141209075e-15       2.152810744594e-13       6.984443055678e-17       7.711462880322e-11       8.647344994282e-12      -6.579837720626e-15 
   43       1.806212357346e-10       1.015019976683e-14       2.021903661559e-13       7.321899787702e-17       7.341345462133e-11       8.262214395928e-12      -7.046917618881e-15 
   44       1.833052262905e-10       1.094730674141e-14       1.875722461817e-13       7.667458361088e-17       6.994987496482e-11       7.900227909994e-12      -7.599907960523e-15 
   45       1.860192385580e-10       1.178310100613e-14       1.713802616194e-13       8.021120529769e-17       6.669014887837e-11       7.560664446469e-12      -8.012391766351e-15 
   46       1.887652636438e-10       1.265803112932e-14       1.535687490585e-13       8.382885335446e-17       6.362911342328e-11       7.243116249211e-12      -8.262418450576e-15 
   47       1.915435153332e-10       1.357244016440e-14       1.340907231434e-13       8.752750124319e-17       6.076317303763e-11       6.946493928282e-12      -8.391197720062e-15 
   48       1.943512502869e-10       1.452659572876e-14       1.128969327837e-13       9.130710907396e-17       5.807963433428e-11       6.668599560522e-12      -8.449852784668e-15 
   49       1.971825139320e-10       1.552068664823e-14       8.993563093639e-14       9.516762319654e-17       5.555602977734e-11       6.406046942928e-12      -8.499987591034e-15 
   50       2.000308994471e-10       1.655485081631e-14       6.515869791368e-14       9.910897579409e-17       5.316687689906e-11       6.155245629790e-12      -8.600244424843e-15 
   51       2.028992971226e-10       1.762927547223e-14       3.854250487003e-14       1.031310844819e-16       5.090768797031e-11       5.915852948137e-12      -8.760359167953e-15 
   52       2.057923521113e-10       1.874411834190e-14       1.007231552688e-14       1.072338518936e-16       4.877630841712e-11       5.688121145942e-12      -8.975615358546e-15 
   53       2.087135729769e-10       1.989947695998e-14      -2.026350524909e-14       1.114171652713e-16       4.676573221246e-11       5.471886521840e-12      -9.239673972982e-15 
   54       2.116652193778e-10       2.109538678329e-14      -5.247342267451e-14       1.156808960567e-16       4.486377546051e-11       5.266539738918e-12      -9.544481382806e-15 
   55       2.146486060031e-10       2.233183365803e-14      -8.656326154473e-14       1.200249091878e-16       4.305678815112e-11       5.071287223566e-12      -9.879829279001e-15 
   56       2.176653601026e-10       2.360879917085e-14      -1.225381063042e-13       1.244490946263e-16       4.134261699512e-11       4.886079413725e-12      -1.023211728485e-14 
   57       2.207162796238e-10       2.492622325932e-14      -1.604007525359e-13       1.289533429468e-16       3.972029109280e-11       4.710861109705e-12      -1.058512172902e-14 
   58       2.238008503235e-10       2.628398954648e-14      -2.001511055768e-13       1.335375362896e-16       3.818610049790e-11       4.545282646672e-12      -1.092021344211e-14 
   59       2.269171496690e-10       2.768192401339e-14      -2.417861350556e-13       1.382015483295e-16       3.673342713323e-11       4.388681549422e-12      -1.121625215397e-14 
   60       2.300617507401e-10       2.911979367175e-14      -2.852998294305e-13       1.429452442466e-16       3.535257570620e-11       4.240064187145e-12      -1.144948089094e-14 
   61       2.332311812421e-10       3.059725467415e-14      -3.306840132441e-13       1.477684979644e-16       3.403346230068e-11       4.098377638640e-12      -1.159910515031e-14 
   62       2.364269006430e-10       3.211368603764e-14      -3.779311160995e-13       1.526712484583e-16       3.277476787555e-11       3.963438099191e-12      -1.166573271792e-14 
   63       2.396512747641e-10       3.366831607224e-14      -4.270319473656e-13       1.576534560898e-16       3.157654867431e-11       3.835179259026e-12      -1.165690430823e-14 
   64       2.429060734190e-10       3.526026677615e-14      -4.779748705737e-13       1.627150869606e-16       3.043748299136e-11       3.713371525581e-12      -1.158184731175e-14 
   65       2.461924236582e-10       3.688855090398e-14      -5.307457853283e-13       1.678561134301e-16       2.935479275952e-11       3.597612886430e-12      -1.145155056604e-14 
   66       2.495107630126e-10       3.855206903505e-14      -5.853281092182e-13       1.730765146334e-16       2.832416513755e-11       3.487319772208e-12      -1.127883912665e-14 
   67       2.528607927377e-10       4.024960664164e-14      -6.417027597279e-13       1.783762769984e-16       2.733967409760e-11       3.381717919540e-12      -1.107844903811e-14 
   68       2.562420188345e-10       4.197994274836e-14      -6.998481261548e-13       1.837554024604e-16       2.639536069953e-11       3.280045612525e-12      -1.086448202985e-14 
   69       2.596556069233e-10       4.374220803046e-14      -7.597400191901e-13       1.892139338783e-16       2.549052101805e-11       3.182231652750e-12      -1.064200357386e-14 
   70       2.631028209483e-10       4.553559434231e-14      -8.213516785791e-13       1.947519357222e-16       2.462535374822e-11       3.088338980804e-12      -1.041386887198e-14 
   71       2.665844375016e-10       4.735924947014e-14      -8.846537641949e-13       2.003694875343e-16       2.379936097659e-11       2.998360813593e-12      -1.018319992076e-14 
   72       2.701007140994e-10       4.921227705422e-14      -9.496143376937e-13       2.060666846434e-16       2.301131219034e-11       2.912216938946e-12      -9.953393272823e-15 
   73       2.736513574585e-10       5.109373651116e-14      -1.016198844170e-12       2.118436388798e-16       2.225920828640e-11       2.829750010217e-12      -9.728127798232e-15 
   74       2.772354917738e-10       5.300264295615e-14      -1.084370093813e-12       2.177004792895e-16       2.154024558066e-11       2.750721840890e-12      -9.511372445887e-15 
   75       2.808516269940e-10       5.493796712525e-14      -1.154088243561e-12       2.236373528491e-16       2.085077981709e-11       2.674809699180e-12      -9.307394004895e-15 
   76       2.844983152337e-10       5.689858992870e-14      -1.225312331371e-12       2.296544155332e-16       2.018722931478e-11       2.601690290255e-12      -9.119994053794e-15 
   77       2.881763283249e-10       5.888315671514e-14      -1.298005242578e-12       2.357518020585e-16       1.954905410394e-11       2.531317574236e-12      -8.950042009227e-15 
   78       2.918868215622e-10       6.089019616706e-14      -1.372129620057e-12       2.419296518951e-16       1.893625718558e-11       2.463689113065e-12      -8.797504227601e-15 
   79       2.956306634676e-10       6.291816232035e-14      -1.447646405223e-12       2.481881189321e-16       1.834847712607e-11       2.398761000829e-12      -8.662166993735e-15 
   80       2.994084181782e-10       6.496543355620e-14      -1.524514851526e-12       2.545273719944e-16       1.778497132398e-11       2.336445956469e-12      -8.543628476110e-15 
   81       3.032203278333e-10       6.703031159307e-14      -1.602692537946e-12       2.609475953594e-16       1.724459927714e-11       2.276611416494e-12      -8.441290682122e-15 
   82       3.070662949619e-10       6.911102047859e-14      -1.682135382480e-12       2.674489892739e-16       1.672580584945e-11       2.219077627682e-12      -8.354351413332e-15 
   83       3.109458648703e-10       7.120570558152e-14      -1.762797655643e-12       2.740317704704e-16       1.622660453794e-11       2.163615739795e-12      -8.281796220714e-15 
   84       3.148585219704e-10       7.331249353809e-14      -1.844631377467e-12       2.806961695813e-16       1.574505929318e-11       2.110003094000e-12      -8.222359306962e-15 
   85       3.188046737890e-10       7.542968571766e-14      -1.927584364115e-12       2.874424217554e-16       1.528085840953e-11       2.058203797133e-12      -8.174416408044e-15 
   86       3.227847985531e-10       7.755559513048e-14      -2.011601880669e-12       2.942707754256e-16       1.483397208647e-11       2.008214725089e-12      -8.136059321465e-15 
   87       3.267991335984e-10       7.968848834096e-14      -2.096627231916e-12       3.011814957318e-16       1.440416884273e-11       1.960010056621e-12      -8.105116939948e-15 
   88       3.308476630331e-10       8.182658548408e-14      -2.182601765476e-12       3.081748649851e-16       1.399100716230e-11       1.913540327333e-12      -8.079146684784e-15 
   89       3.349301054016e-10       8.396806028177e-14      -2.269464874936e-12       3.152511831327e-16       1.359382714038e-11       1.868731483653e-12      -8.055425939189e-15 
   90       3.390459013482e-10       8.611104005925e-14      -2.357154002981e-12       3.224107682222e-16       1.321174212939e-11       1.825483936818e-12      -8.030943481651e-15 
   91       3.431942012808e-10       8.825360576145e-14      -2.445604644526e-12       3.296539568665e-16       1.284363038497e-11       1.783671616855e-12      -8.002390919288e-15 
   92       3.473738530349e-10       9.039379196937e-14      -2.534750349849e-12       3.369811047081e-16       1.248812671195e-11       1.743141026563e-12      -7.966154121194e-15 
   93       3.515837469725e-10       9.252962012038e-14      -2.624523941266e-12       3.443925972927e-16       1.214394574390e-11       1.703749460203e-12      -7.919167602723e-15 
   94       3.558239374461e-10       9.465920384887e-14      -2.714861365677e-12       3.518888835507e-16       1.181092554493e-11       1.665488289616e-12      -7.861643276281e-15 
   95       3.600946679792e-10       9.678065959282e-14      -2.805698429932e-12       3.594704482337e-16       1.148912625028e-11       1.628376557534e-12      -7.794738175610e-15 
   96       3.643960215298e-10       9.889207526742e-14      -2.896969658437e-12       3.671378025536e-16       1.117850866723e-11       1.592423062078e-12      -7.719731307682e-15 
   97       3.687279130602e-10       1.009915107372e-13      -2.988608312945e-12       3.748914847903e-16       1.087893047338e-11       1.557625948348e-12      -7.638026931645e-15 
   98       3.730900821074e-10       1.030769982883e-13      -3.080546412344e-12       3.827320608990e-16       1.059014241492e-11       1.523972300015e-12      -7.551157837753e-15 
   99       3.774820853534e-10       1.051465431003e-13      -3.172714752452e-12       3.906601251175e-16       1.031178450488e-11       1.491437730908e-12      -7.460788626310e-15 
  100       3.819032891950e-10       1.071981237188e-13      -3.265042925802e-12       3.986763005740e-16       1.004338222145e-11       1.459985976603e-12      -7.368718986608e-15 
  101       3.863528623147e-10       1.092296925274e-13      -3.357459341433e-12       4.067812398945e-16       9.784342706171e-12       1.429568486010e-12      -7.276886975862e-15 
  102       3.908297682501e-10       1.112391762199e-13      -3.449891244682e-12       4.149756258101e-16       9.533950962283e-12       1.400124012968e-12      -7.187372298147e-15 
  103       3.953327579649e-10       1.132244762723e-13      -3.542264736973e-12       4.232601717645e-16       9.291366052943e-12       1.371578207828e-12      -7.102399583342e-15 
  104       3.998606276470e-10       1.151835205840e-13      -3.634505359645e-12       4.316355991111e-16       9.055811361615e-12       1.343860573743e-12      -7.023854493293e-15 
  105       4.044130477694e-10       1.171144253288e-13      -3.726539892627e-12       4.401025638868e-16       8.827182832354e-12       1.316958823855e-12      -6.951750532781e-15 
  106       4.089898326936e-10       1.190153559496e-13      -3.818294836765e-12       4.486617212329e-16       8.605516188904e-12       1.290871139756e-12      -6.885560275781e-15 
  107       4.135906809812e-10       1.208844789639e-13      -3.909695897154e-12       4.573137482681e-16       8.390798560715e-12       1.265589247537e-12      -6.824681993880e-15 
