# dimensionless total lensed [l(l+1)/2pi] C_l's
# for l=2 to 2500, i.e. number of multipoles equal to 2499
#
# -> if you prefer output in CAMB/HealPix/LensPix units/order, set 'format' to 'camb' in input file
# -> if you don't want to see such a header, set 'headers' to 'no' in input file
# -> for CMB lensing (phi), these are C_l^phi-phi for the lensing potential.
#    Remember the conversion factors:
#    C_l^dd (deflection) = l(l+1) C_l^phi-phi
#    C_l^gg (shear/convergence) = 1/4 (l(l+1))^2 C_l^phi-phi
#
# 1:l     2:TT                     3:EE                     4:TE                     5:BB                     6:phiphi                 7:TPhi                   8:Ephi               
    2       1.513671759781e-10       4.794217650774e-15       3.799601549264e-13       2.253260849098e-19       8.309269369818e-09       5.059296848655e-10      -2.012693469261e-12 
    3       1.417635690486e-10       6.054700023870e-15       4.281355186117e-13       4.507521082513e-19       5.130033838813e-09       3.573203374013e-10      -1.512247405009e-12 
    4       1.331045967483e-10       5.149059060565e-15       3.998199116105e-13       7.514735006942e-19       3.573583225444e-09       2.695906823625e-10      -9.768126940769e-13 
    5       1.266682473148e-10       3.373399476247e-15       3.391808823138e-13       1.127617735812e-18       2.668877690113e-09       2.123220915309e-10      -5.310395529150e-13 
    6       1.222186577624e-10       1.856603454092e-15       2.715930069883e-13       1.579339329004e-18       2.084796489367e-09       1.723425339834e-10      -2.072621913812e-13 
    7       1.192686940826e-10       9.992287444535e-16       2.117276791560e-13       2.106816842716e-18       1.680729612239e-09       1.430985672257e-10      -5.087628582834e-15 
    8       1.174598649224e-10       6.511434620014e-16       1.659116327480e-13       2.710249505079e-18       1.387279331376e-09       1.209830813915e-10       9.391239345428e-14 
    9       1.164936790158e-10       5.242451090912e-16       1.354218315532e-13       3.389853544881e-18       1.166777468789e-09       1.038453303597e-10       1.170816797066e-13 
   10       1.161225208782e-10       4.430350308263e-16       1.186572198421e-13       4.145858352843e-18       9.966953827736e-10       9.028518606695e-11       9.396078501320e-14 
   11       1.162502179800e-10       3.698755247255e-16       1.125858899765e-13       4.978502582348e-18       8.432998477470e-10       7.969037559413e-11       5.145301810775e-14 
   12       1.167308426500e-10       3.230987539866e-16       1.137817548108e-13       5.888030301886e-18       7.367654660012e-10       7.044035454285e-11       8.505637997006e-15 
   13       1.174946648410e-10       3.112619958398e-16       1.192709789487e-13       6.874687306726e-18       6.493104090035e-10       6.289736743054e-11      -2.257432321588e-14 
   14       1.184688315191e-10       3.231395165210e-16       1.268699312019e-13       7.938717688749e-18       5.765471999012e-10       5.631078520869e-11      -3.808041904872e-14 
   15       1.196509292202e-10       3.467137908740e-16       1.351601849288e-13       9.080360751523e-18       5.152998250806e-10       5.077400609048e-11      -3.911834342506e-14 
   16       1.209812251638e-10       3.813894510546e-16       1.435375388641e-13       1.029984834285e-17       4.632260994155e-10       4.602398927309e-11      -3.059086532854e-14 
   17       1.224495900130e-10       4.337964569676e-16       1.519038116166e-13       1.159740265993e-17       4.185565848865e-10       4.189568328963e-11      -1.835771002157e-14 
   18       1.240078770247e-10       5.088710922632e-16       1.604994295209e-13       1.297323435500e-17       3.797879305725e-10       3.827315525589e-11      -7.625032336060e-15 
   19       1.256676243804e-10       6.063674049116e-16       1.695651763858e-13       1.442754241768e-17       3.463017424006e-10       3.511663999196e-11      -8.588833443695e-16 
   20       1.274077078264e-10       7.237398134143e-16       1.792812857937e-13       1.596051122742e-17       3.168103273872e-10       3.233217494503e-11       6.140734818569e-16 
   21       1.292343259941e-10       8.603839465546e-16       1.896011908448e-13       1.757231362373e-17       2.908504642921e-10       2.986842197663e-11      -2.208177258559e-15 
   22       1.311289788799e-10       1.015950696884e-15       2.003029272083e-13       1.926310765556e-17       2.678002530518e-10       2.764898620202e-11      -7.116159284532e-15 
   23       1.330897067333e-10       1.190207189675e-15       2.109470399459e-13       2.103304117978e-17       2.473428303021e-10       2.565116449535e-11      -1.224157277071e-14 
   24       1.350994914936e-10       1.382876467156e-15       2.209905225304e-13       2.288224855692e-17       2.290056598595e-10       2.384720884216e-11      -1.576025436811e-14 
   25       1.371692134982e-10       1.594503705800e-15       2.301625695040e-13       2.481085702590e-17       2.125730108369e-10       2.222962261351e-11      -1.704119428755e-14 
   26       1.392994631011e-10       1.826099354674e-15       2.382876478938e-13       2.681898271792e-17       1.977473179775e-10       2.077879144640e-11      -1.603225472077e-14 
   27       1.414760490208e-10       2.079720270251e-15       2.452981617607e-13       2.890673670348e-17       1.843506194164e-10       1.946637490537e-11      -1.354590381718e-14 
   28       1.436721342034e-10       2.357737964235e-15       2.511886525230e-13       3.107422227942e-17       1.721518694594e-10       1.825436657064e-11      -1.074035682257e-14 
   29       1.458978864407e-10       2.661598649339e-15       2.560246079113e-13       3.332154445155e-17       1.610887029918e-10       1.714161635915e-11      -8.251410641419e-15 
   30       1.481643190455e-10       2.992445694966e-15       2.599293795648e-13       3.564880225695e-17       1.510422776137e-10       1.612994156034e-11      -6.645724595350e-15 
   31       1.504714304753e-10       3.351352173131e-15       2.630281248963e-13       3.805608872384e-17       1.418076198506e-10       1.521157870679e-11      -6.414053487123e-15 
   32       1.528216140097e-10       3.739236594467e-15       2.652651854273e-13       4.054350228708e-17       1.333369630909e-10       1.437607770069e-11      -7.275788653153e-15 
   33       1.552084243596e-10       4.156901070676e-15       2.665170834945e-13       4.311113964390e-17       1.255703233177e-10       1.360402313342e-11      -8.597333552193e-15 
   34       1.576185897174e-10       4.605100994219e-15       2.666425461243e-13       4.575909428210e-17       1.183989282426e-10       1.287237585914e-11      -9.699023937140e-15 
   35       1.600565470623e-10       5.084743261434e-15       2.654993175312e-13       4.848746133971e-17       1.117860132984e-10       1.218307066643e-11      -1.034774934950e-14 
   36       1.625267253037e-10       5.596749245963e-15       2.629305180909e-13       5.129633474855e-17       1.056784749262e-10       1.154359677923e-11      -1.043005939907e-14 
   37       1.650285620487e-10       6.141985613811e-15       2.587926289684e-13       5.418580503835e-17       9.999677065835e-11       1.095829297161e-11      -9.880270073039e-15 
   38       1.675645188691e-10       6.721217534566e-15       2.530717726100e-13       5.715595546535e-17       9.472617442671e-11       1.042527748797e-11      -8.880197039368e-15 
   39       1.701334842519e-10       7.335133070664e-15       2.458065442744e-13       6.020686485709e-17       8.984992043283e-11       9.937947870064e-12      -7.730254737332e-15 
   40       1.727277899917e-10       7.984349965218e-15       2.370586810560e-13       6.333860879630e-17       8.532144598586e-11       9.485350703719e-12      -6.801822570846e-15 
   41       1.753375425394e-10       8.669458357270e-15       2.268901290562e-13       6.655125585890e-17       8.108060002020e-11       9.055483901105e-12      -6.434871543217e-15 
   42       1.779668865171e-10       9.391176418436e-15       2.152818973004e-13       6.984485458214e-17       7.711486140887e-11       8.647344923670e-12      -6.579876154669e-15 
   43       1.806219336854e-10       1.015023784238e-14       2.021911469204e-13       7.321944244535e-17       7.341367541499e-11       8.262210583451e-12      -7.046955610256e-15 
   44       1.833059277440e-10       1.094734781143e-14       1.875729790049e-13       7.667504922935e-17       6.995008471327e-11       7.900220505164e-12      -7.599946032611e-15 
   45       1.860199440436e-10       1.178314518635e-14       1.713809398725e-13       8.021169247338e-17       6.669034819877e-11       7.560654852476e-12      -8.012431145830e-15 
   46       1.887659743385e-10       1.265807854189e-14       1.535693654599e-13       8.382936259343e-17       6.362930291086e-11       7.243105931582e-12      -8.262460045320e-15 
   47       1.915442328561e-10       1.357249094454e-14       1.340912697419e-13       8.752803304990e-17       6.076335328217e-11       6.946484030531e-12      -8.391241744989e-15 
   48       1.943519767390e-10       1.452665002689e-14       1.128974008915e-13       9.130766395078e-17       5.807980589309e-11       6.668590822987e-12      -8.449898628896e-15 
   49       1.971832519377e-10       1.552074463216e-14       8.993601105874e-14       9.516820164324e-17       5.555619314622e-11       6.406039616900e-12      -8.500033677853e-15 
   50       2.000316519195e-10       1.655491266884e-14       6.515898008146e-14       9.910957830748e-17       5.316703250463e-11       6.155239510646e-12      -8.600288349989e-15 
   51       2.029000661114e-10       1.762934137302e-14       3.854268032049e-14       1.031317115559e-16       5.090783623810e-11       5.915847814453e-12      -8.760398778493e-15 
   52       2.057931383212e-10       1.874418846091e-14       1.007237739634e-14       1.072345040192e-16       4.877644978093e-11       5.688116894694e-12      -8.975649134057e-15 
   53       2.087143755298e-10       1.989955145534e-14      -2.026356159204e-14       1.114178429357e-16       4.676586710122e-11       5.471883190637e-12      -9.239701149668e-15 
   54       2.116660355632e-10       2.109546579896e-14      -5.247359928015e-14       1.156815997434e-16       4.486390428423e-11       5.266537529353e-12      -9.544502083869e-15 
   55       2.146494315489e-10       2.233191732515e-14      -8.656355827445e-14       1.200256393759e-16       4.305691129240e-11       5.071286465276e-12      -9.879844519001e-15 
   56       2.176661911880e-10       2.360888762119e-14      -1.225385236979e-13       1.244498517931e-16       4.134273482114e-11       4.886080330774e-12      -1.023212854504e-14 
   57       2.207171135619e-10       2.492631662947e-14      -1.604012927913e-13       1.289541275680e-16       3.972040395035e-11       4.710863737500e-12      -1.058513086608e-14 
   58       2.238016857584e-10       2.628408797853e-14      -2.001517728398e-13       1.335383488390e-16       3.818620870163e-11       4.545286803782e-12      -1.092022272090e-14 
   59       2.269179867820e-10       2.768202765578e-14      -2.417869357242e-13       1.382023892795e-16       3.673353095320e-11       4.388686808158e-12      -1.121626428132e-14 
   60       2.300625914643e-10       2.911990268000e-14      -2.853007724720e-13       1.429461140675e-16       3.535267535483e-11       4.240069842908e-12      -1.144949905065e-14 
   61       2.332320291162e-10       3.059736920928e-14      -3.306851098983e-13       1.477693971258e-16       3.403355793441e-11       4.098382760046e-12      -1.159913278581e-14 
   62       2.364277594641e-10       3.211380625652e-14      -3.779323775450e-13       1.526721774302e-16       3.277485964630e-11       3.963441844471e-12      -1.166577248958e-14 
   63       2.396521481866e-10       3.366844212420e-14      -4.270333839882e-13       1.576544153444e-16       3.157663674121e-11       3.835180983999e-12      -1.165695769193e-14 
   64       2.429069648973e-10       3.526039880191e-14      -4.779764918161e-13       1.627160769722e-16       3.043756751780e-11       3.713370816242e-12      -1.158191442759e-14 
   65       2.461933363862e-10       3.688868903451e-14      -5.307475995345e-13       1.678571346759e-16       2.935487391006e-11       3.597609592902e-12      -1.145163000014e-14 
   66       2.495116998613e-10       3.855221339041e-14      -5.853301234715e-13       1.730775675934e-16       2.832424307455e-11       3.487314044067e-12      -1.127892774601e-14 
   67       2.528617561893e-10       4.024975732977e-14      -6.417049796824e-13       1.783773621565e-16       2.733974897777e-11       3.381710242508e-12      -1.107854179851e-14 
   68       2.562430109059e-10       4.198009986623e-14      -6.998505561764e-13       1.837565203040e-16       2.639543267267e-11       3.280036762468e-12      -1.086457233269e-14 
   69       2.596566290618e-10       4.374237167285e-14      -7.597426635105e-13       1.892150848974e-16       2.549059023344e-11       3.182222379102e-12      -1.064208541428e-14 
   70       2.631038739451e-10       4.553576460447e-14      -8.213545416320e-13       1.947531204092e-16       2.462542035463e-11       3.088329907943e-12      -1.041393754785e-14 
   71       2.665855214085e-10       4.735942644818e-14      -8.846568506568e-13       2.003707063840e-16       2.379942511981e-11       2.998352420666e-12      -1.018325222512e-14 
   72       2.701018281430e-10       4.921246084552e-14      -9.496176525264e-13       2.060679381536e-16       2.301137401064e-11       2.912209538907e-12      -9.953427693535e-15 
   73       2.736524999523e-10       5.109392721485e-14      -1.016202392666e-12       2.118449275514e-16       2.225926791585e-11       2.829743728086e-12      -9.728144724984e-15 
   74       2.772366600254e-10       5.300284067356e-14      -1.084373881641e-12       2.177018036268e-16       2.154030314035e-11       2.750716591233e-12      -9.511374384429e-15 
   75       2.808528172113e-10       5.493817196039e-14      -1.154092276814e-12       2.236387133600e-16       2.085083541419e-11       2.674805162802e-12      -9.307385798564e-15 
   76       2.844995227245e-10       5.689880198800e-14      -1.225316616649e-12       2.296558127287e-16       2.018728304263e-11       2.601685949777e-12      -9.119982511653e-15 
   77       2.881775486504e-10       5.888337610472e-14      -1.298009787171e-12       2.357532364496e-16       1.954910605204e-11       2.531312940417e-12      -8.950033613025e-15 
   78       2.918880509061e-10       6.089042299205e-14      -1.372134432045e-12       2.419311239913e-16       1.893630744131e-11       2.463683793907e-12      -8.797504421168e-15 
   79       2.956318987264e-10       6.291839668494e-14      -1.447651493556e-12       2.481896292415e-16       1.834852577329e-11       2.398754714537e-12      -8.662180037004e-15 
   80       2.994096570539e-10       6.496567556371e-14      -1.524520226103e-12       2.545289210232e-16       1.778501844169e-11       2.336438544860e-12      -8.543657294099e-15 
   81       3.032215689296e-10       6.703056134602e-14      -1.602698209691e-12       2.609491836120e-16       1.724464493796e-11       2.276602858838e-12      -8.441336708879e-15 
   82       3.070675378835e-10       6.911127807881e-14      -1.682141363434e-12       2.674506172521e-16       1.672585011814e-11       2.219068054998e-12      -8.354414430834e-15 
   83       3.109471103252e-10       7.120597113018e-14      -1.762803959045e-12       2.740334386737e-16       1.622664746980e-11       2.163605449578e-12      -8.281874192732e-15 
   84       3.148597716705e-10       7.331276713250e-14      -1.844638017215e-12       2.806978785067e-16       1.574510093465e-11       2.109992528359e-12      -8.222448623836e-15 
   85       3.188059296993e-10       7.542996743728e-14      -1.927591352214e-12       2.874441718991e-16       1.528089880581e-11       2.058193403213e-12      -8.174513453521e-15 
   86       3.227860626897e-10       7.755588503189e-14      -2.011609226362e-12       2.942725672839e-16       1.483401128319e-11       2.008204914404e-12      -8.136160928419e-15 
   87       3.268004080214e-10       7.968878645599e-14      -2.096634941403e-12       3.011833298005e-16       1.440420688544e-11       1.960001199527e-12      -8.105220451560e-15 
   88       3.308489498387e-10       8.182689181785e-14      -2.182609841630e-12       3.081767417600e-16       1.399104409597e-11       1.913532747307e-12      -8.079250017675e-15 
   89       3.349314067143e-10       8.396837481070e-14      -2.269473317008e-12       3.152531031091e-16       1.359386300887e-11       1.868725451400e-12      -8.055527648495e-15 
   90       3.390472193129e-10       8.611136272905e-14      -2.357162806295e-12       3.224127318954e-16       1.321177697492e-11       1.825479664197e-12      -8.031042828060e-15 
   91       3.431955380539e-10       8.825393648501e-14      -2.445613800172e-12       3.296559647313e-16       1.284366424752e-11       1.783669250618e-12      -8.002487938017e-15 
   92       3.473752107755e-10       9.039413062463e-14      -2.534759844362e-12       3.369831572590e-16       1.248815962870e-11       1.743140641921e-12      -7.966249692928e-15 
   93       3.515851278120e-10       9.252996655822e-14      -2.624533757335e-12       3.443946950248e-16       1.214397774929e-11       1.703751062356e-12      -7.919263338472e-15 
   94       3.558253433900e-10       9.465955793299e-14      -2.714871486143e-12       3.518910269641e-16       1.181095667293e-11       1.665491840951e-12      -7.861740807789e-15 
   95       3.600961008662e-10       9.678102121240e-14      -2.805708838976e-12       3.594726378347e-16       1.148915653475e-11       1.628381982695e-12      -7.794838953998e-15 
   96       3.643974830098e-10       9.889244434016e-14      -2.896980341786e-12       3.671400388555e-16       1.117853814163e-11       1.592430245175e-12      -7.719836581531e-15 
   97       3.687294045721e-10       1.009918872125e-13      -2.988619258084e-12       3.748937683137e-16       1.087895917047e-11       1.557634730089e-12      -7.638137724444e-15 
   98       3.730916048564e-10       1.030773821503e-13      -3.080557608730e-12       3.827343921724e-16       1.059017036640e-11       1.523982474776e-12      -7.551274924724e-15 
   99       3.774836402872e-10       1.051469343717e-13      -3.172726191739e-12       3.906625046781e-16       1.031181174109e-11       1.491449043727e-12      -7.460912510593e-15 
  100       3.819048769801e-10       1.071985224637e-13      -3.265054602067e-12       3.986787289679e-16       1.004340877098e-11       1.459998120113e-12      -7.368849874825e-15 
  101       3.863544833112e-10       1.092300988551e-13      -3.357471251416e-12       4.067837176775e-16       9.784368595567e-12       1.429581097301e-12      -7.277024753045e-15 
  102       3.908314224865e-10       1.112395902885e-13      -3.449903388025e-12       4.149781535482e-16       9.533976215610e-12       1.400136670376e-12      -7.187516502042e-15 
  103       3.953344451121e-10       1.132248982922e-13      -3.542277116466e-12       4.232627500346e-16       9.291390691440e-12       1.371590427662e-12      -7.102549378075e-15 
  104       3.998623470161e-10       1.151839508015e-13      -3.634517980622e-12       4.316382285001e-16       9.055835403930e-12       1.343871827513e-12      -7.024008699608e-15 
  105       4.044147983871e-10       1.171148639448e-13      -3.726552759655e-12       4.401052449862e-16       8.827206296780e-12       1.316968620296e-12      -6.951907838031e-15 
  106       4.089916133093e-10       1.190158030944e-13      -3.818307952679e-12       4.486644546370e-16       8.605539093869e-12       1.290879050730e-12      -6.885719287379e-15 
  107       4.135924900502e-10       1.208849346915e-13      -3.909709262921e-12       4.573165345742e-16       8.390820924658e-12       1.265594914288e-12      -6.824841237735e-15 
