# dimensionless total [l(l+1)/2pi] C_l's
# for l=2 to 3000, i.e. number of multipoles equal to 2999
#
# -> if you prefer output in CAMB/HealPix/LensPix units/order, set 'format' to 'camb' in input file
# -> if you don't want to see such a header, set 'headers' to 'no' in input file
# -> for CMB lensing (phi), these are C_l^phi-phi for the lensing potential.
#    Remember the conversion factors:
#    C_l^dd (deflection) = l(l+1) C_l^phi-phi
#    C_l^gg (shear/convergence) = 1/4 (l(l+1))^2 C_l^phi-phi
#
# 1:l     2:TT                     3:EE                     4:TE                     5:BB                     6:phiphi                 7:TPhi                   8:Ephi               
    2       1.513632215042e-10       4.793919260852e-15       3.799554177195e-13       0.000000000000e+00       8.308900494413e-09       5.059094091821e-10      -2.012650401936e-12 
    3       1.417602103981e-10       6.054149363071e-15       4.281331633604e-13       0.000000000000e+00       5.129784819530e-09       3.573050258719e-10      -1.512211810222e-12 
    4       1.331006890737e-10       5.148201726065e-15       3.998152542350e-13       0.000000000000e+00       3.573399086115e-09       2.695788015297e-10      -9.767879446428e-13 
    5       1.266632450603e-10       3.372191951749e-15       3.391740646744e-13       0.000000000000e+00       2.668733855846e-09       2.123124739249e-10      -5.310262023185e-13 
    6       1.222124474214e-10       1.854974208453e-15       2.715862746314e-13       0.000000000000e+00       2.084679589775e-09       1.723344310049e-10      -2.072577160969e-13 
    7       1.192614293020e-10       9.970892419075e-16       2.117217425146e-13       0.000000000000e+00       1.680632379536e-09       1.430915609012e-10      -5.088506830861e-15 
    8       1.174514038755e-10       6.484076179602e-16       1.659065778879e-13       0.000000000000e+00       1.387196934277e-09       1.209769284514e-10       9.390925948607e-14 
    9       1.164838216523e-10       5.208327191755e-16       1.354177006659e-13       0.000000000000e+00       1.166706053370e-09       1.038398119563e-10       1.170784347929e-13 
   10       1.161112282020e-10       4.388686891468e-16       1.186536347449e-13       0.000000000000e+00       9.966325874935e-10       9.028014321663e-11       9.395857929162e-14 
   11       1.162372956571e-10       3.648777678090e-16       1.125826851424e-13       0.000000000000e+00       8.432440674574e-10       7.968568874744e-11       5.145216656818e-14 
   12       1.167161499034e-10       3.171908914544e-16       1.137789178542e-13       0.000000000000e+00       7.367155956166e-10       7.043613824740e-11       8.505975691191e-15 
   13       1.174780749191e-10       3.043648273223e-16       1.192685838522e-13       0.000000000000e+00       6.492654124725e-10       6.289358068935e-11      -2.257325873001e-14 
   14       1.184501510000e-10       3.151739051146e-16       1.268681248104e-13       0.000000000000e+00       5.765064951286e-10       5.630726320747e-11      -3.807907656256e-14 
   15       1.196300208142e-10       3.376009518001e-16       1.351591699439e-13       0.000000000000e+00       5.152627667944e-10       5.077072456634e-11      -3.911709538749e-14 
   16       1.209580644480e-10       3.710502819688e-16       1.435377569939e-13       0.000000000000e+00       4.631921840186e-10       4.602103460223e-11      -3.058988301247e-14 
   17       1.224240066118e-10       4.221507698232e-16       1.519055719010e-13       0.000000000000e+00       4.185254691614e-10       4.189304359373e-11      -1.835701141989e-14 
   18       1.239798193278e-10       4.958390670274e-16       1.605031637660e-13       0.000000000000e+00       3.797593033413e-10       3.827068970722e-11      -7.624499111014e-15 
   19       1.256370211105e-10       5.918687008196e-16       1.695712834575e-13       0.000000000000e+00       3.462753064075e-10       3.511429882748e-11      -8.583996413492e-16 
   20       1.273743965501e-10       7.076932372530e-16       1.792900551317e-13       0.000000000000e+00       3.167858585564e-10       3.233006279776e-11       6.145661061080e-16 
   21       1.291981890150e-10       8.427085282943e-16       1.896130201263e-13       0.000000000000e+00       2.908277674166e-10       2.986656123631e-11      -2.207630278899e-15 
   22       1.310899835598e-10       9.965660877145e-16       2.003183946926e-13       0.000000000000e+00       2.677791730597e-10       2.764725352580e-11      -7.115519059855e-15 
   23       1.330478027342e-10       1.169033021457e-15       2.109667691294e-13       0.000000000000e+00       2.473232202089e-10       2.564949167451e-11      -1.224083411570e-14 
   24       1.350545773967e-10       1.359832126716e-15       2.210151272462e-13       0.000000000000e+00       2.289873869366e-10       2.384564273221e-11      -1.575945897837e-14 
   25       1.371211782715e-10       1.569508267136e-15       2.301926349565e-13       0.000000000000e+00       2.125559500828e-10       2.222819708690e-11      -1.704041672598e-14 
   26       1.392482016251e-10       1.799071682989e-15       2.383237332676e-13       0.000000000000e+00       1.977313615481e-10       2.077749062343e-11      -1.603158572561e-14 
   27       1.414214695169e-10       2.050579717061e-15       2.453408891845e-13       0.000000000000e+00       1.843356708933e-10       1.946518496776e-11      -1.354538078344e-14 
   28       1.436141600378e-10       2.326404572994e-15       2.512387209914e-13       0.000000000000e+00       1.721378482820e-10       1.825328825957e-11      -1.073994225507e-14 
   29       1.458364422438e-10       2.627992596149e-15       2.560826903838e-13       0.000000000000e+00       1.610755308474e-10       1.714063499487e-11      -8.251044502955e-15 
   30       1.480993257629e-10       2.956487100687e-15       2.599960749345e-13       0.000000000000e+00       1.510298817726e-10       1.612901395932e-11      -6.645340521817e-15 
   31       1.504028044311e-10       3.312961231566e-15       2.631039662310e-13       0.000000000000e+00       1.417959396925e-10       1.521064087094e-11      -6.413587433392e-15 
   32       1.527492671101e-10       3.698334275093e-15       2.653507681407e-13       0.000000000000e+00       1.333259417758e-10       1.437510135632e-11      -7.275213492812e-15 
   33       1.551322635119e-10       4.113409479159e-15       2.666131205468e-13       0.000000000000e+00       1.255599100813e-10       1.360304315859e-11      -8.596678910441e-15 
   34       1.575385194243e-10       4.558943386394e-15       2.667498573425e-13       0.000000000000e+00       1.183890820569e-10       1.287148430207e-11      -9.698371119950e-15 
   35       1.599724841780e-10       5.035843320592e-15       2.656186907182e-13       0.000000000000e+00       1.117766955667e-10       1.218233446714e-11      -1.034715946910e-14 
   36       1.624386062647e-10       5.545030836033e-15       2.630626522581e-13       0.000000000000e+00       1.056696500545e-10       1.154302432639e-11      -1.042954426507e-14 
   37       1.649363422579e-10       6.087372812936e-15       2.589381356384e-13       0.000000000000e+00       9.998840799599e-11       1.095783497040e-11      -9.879792484746e-15 
   38       1.674681550733e-10       6.663634989392e-15       2.532312661544e-13       0.000000000000e+00       9.471824376644e-11       1.042488004432e-11      -8.879714585225e-15 
   39       1.700329283674e-10       7.274506132711e-15       2.459806722978e-13       0.000000000000e+00       8.984239225400e-11       9.937570354460e-12      -7.729734183791e-15 
   40       1.726229873415e-10       7.920604742533e-15       2.372481316679e-13       0.000000000000e+00       8.531429367463e-11       9.484970016404e-12      -6.801242872328e-15 
   41       1.752284329079e-10       8.602521965348e-15       2.270956121122e-13       0.000000000000e+00       8.107380093768e-11       9.055095094177e-12      -6.434224874700e-15 
   42       1.778534150254e-10       9.320977904550e-15       2.155040360182e-13       0.000000000000e+00       7.710839357638e-11       8.646948751295e-12      -6.579161731850e-15 
   43       1.805040548580e-10       1.007670865742e-14       2.024304308825e-13       0.000000000000e+00       7.340751748824e-11       8.261810369803e-12      -7.046178728653e-15 
   44       1.831836070145e-10       1.087042211673e-14       1.878297399830e-13       0.000000000000e+00       6.994421728622e-11       7.899822612431e-12      -7.599119150987e-15 
   45       1.858931569023e-10       1.170275984694e-14       1.716553515550e-13       0.000000000000e+00       6.668475437919e-11       7.560268151471e-12      -8.011572937774e-15 
   46       1.886346973485e-10       1.257417203244e-14       1.538615263969e-13       0.000000000000e+00       6.362396620406e-11       7.242737863058e-12      -8.261587491108e-15 
   47       1.914084405256e-10       1.348500304235e-14       1.344012257918e-13       0.000000000000e+00       6.075825754033e-11       6.946139100982e-12      -8.390367203427e-15 
   48       1.942116405835e-10       1.443552180076e-14       1.132251448300e-13       0.000000000000e+00       5.807493608341e-11       6.668270003492e-12      -8.449028760214e-15 
   49       1.970383394925e-10       1.542591842690e-14       9.028148236754e-14       0.000000000000e+00       5.555153617602e-11       6.405739709155e-12      -8.499168305510e-15 
   50       1.998821271391e-10       1.645633212889e-14       6.552205908416e-14       0.000000000000e+00       5.316257746359e-11       6.154953696105e-12      -8.599421152279e-15 
   51       2.027458944884e-10       1.752695160568e-14       3.892316313048e-14       0.000000000000e+00       5.090357257325e-11       5.915570207573e-12      -8.759524196828e-15 
   52       2.056342884810e-10       1.863793609045e-14       1.046996515491e-14       0.000000000000e+00       4.877236707626e-11       5.687844122207e-12      -8.974764646422e-15 
   53       2.085508195183e-10       1.978938463478e-14      -1.984926819197e-14       0.000000000000e+00       4.676195547416e-11       5.471614873689e-12      -9.238807827906e-15 
   54       2.114977491518e-10       2.098133421959e-14      -5.204310556492e-14       0.000000000000e+00       4.486015480901e-11       5.266276790042e-12      -9.543605178856e-15 
   55       2.144763941503e-10       2.221377238700e-14      -8.611748312500e-14       0.000000000000e+00       4.305331614286e-11       5.071039506901e-12      -9.878953057683e-15 
   56       2.174883844470e-10       2.348668313826e-14      -1.220776133323e-13       0.000000000000e+00       4.133928642880e-11       4.885852913865e-12      -1.023125161168e-14 
   57       2.205345209735e-10       2.480000912908e-14      -1.599264300183e-13       0.000000000000e+00       3.971709494956e-11       4.710660031645e-12      -1.058427642444e-14 
   58       2.236142926665e-10       2.615363685311e-14      -1.996639847418e-13       0.000000000000e+00       3.818303217525e-11       4.545109110205e-12      -1.091939736884e-14 
   59       2.267257803802e-10       2.754739531873e-14      -2.412874015084e-13       0.000000000000e+00       3.673048069315e-11       4.388535269651e-12      -1.121547299376e-14 
   60       2.298655607991e-10       2.898105472568e-14      -2.847908314893e-13       0.000000000000e+00       3.534974613749e-11       4.239942141127e-12      -1.144874491075e-14 
   61       2.330301650539e-10       3.045427437491e-14      -3.301662612489e-13       0.000000000000e+00       3.403074551845e-11       4.098274383691e-12      -1.159841708354e-14 
   62       2.362210545370e-10       3.196643572872e-14      -3.774062518599e-13       0.000000000000e+00       3.277215983148e-11       3.963348248517e-12      -1.166509604511e-14 
   63       2.394405965357e-10       3.351676936041e-14      -4.265017370582e-13       0.000000000000e+00       3.157404518084e-11       3.835098261840e-12      -1.165632120957e-14 
   64       2.426905622525e-10       3.510439953864e-14      -4.774412061480e-13       0.000000000000e+00       3.043507981052e-11       3.713295831509e-12      -1.158131849536e-14 
   65       2.459720800466e-10       3.672834129334e-14      -5.302106858024e-13       0.000000000000e+00       2.935248569715e-11       3.597540117151e-12      -1.145107508964e-14 
   66       2.492855886763e-10       3.838749748163e-14      -5.847937218631e-13       0.000000000000e+00       2.832195014292e-11       3.487248900343e-12      -1.127841421264e-14 
   67       2.526307905407e-10       4.008065585368e-14      -6.411713611408e-13       0.000000000000e+00       2.733754736843e-11       3.381649454773e-12      -1.107806988204e-14 
   68       2.560071933917e-10       4.180659762996e-14      -6.993221272987e-13       0.000000000000e+00       2.639331870108e-11       3.279981397035e-12      -1.086414204032e-14 
   69       2.594159674481e-10       4.356445533893e-14      -7.592219835098e-13       0.000000000000e+00       2.548856021208e-11       3.182173376469e-12      -1.064169602291e-14 
   70       2.628583823125e-10       4.535342254885e-14      -8.208443295030e-13       0.000000000000e+00       2.462347056273e-11       3.088287729259e-12      -1.041358741029e-14 
   71       2.663352206576e-10       4.717264869130e-14      -8.841599887888e-13       0.000000000000e+00       2.379755186468e-11       2.998316987856e-12      -1.018293868454e-14 
   72       2.698467465184e-10       4.902123897896e-14      -9.491371903074e-13       0.000000000000e+00       2.300957369213e-11       2.912180172642e-12      -9.953146995364e-15 
   73       2.733926735849e-10       5.089825432355e-14      -1.015741550078e-12       0.000000000000e+00       2.225753709408e-11       2.829719083593e-12      -9.727891926035e-15 
   74       2.769721334941e-10       5.280271125361e-14      -1.083936052849e-12       0.000000000000e+00       2.153863860652e-11       2.750694591953e-12      -9.511143259390e-15 
   75       2.805836441230e-10       5.473358183240e-14      -1.153681033742e-12       0.000000000000e+00       2.084923426467e-11       2.674782931891e-12      -9.307168743800e-15 
   76       2.842257655706e-10       5.668974816225e-14      -1.224935708282e-12       0.000000000000e+00       2.018574267541e-11       2.601660007848e-12      -9.119770923159e-15 
   77       2.878992762982e-10       5.866985650116e-14      -1.297663125136e-12       0.000000000000e+00       1.954762390707e-11       2.531280262818e-12      -8.949819792570e-15 
   78       2.916053380562e-10       6.067243627082e-14      -1.371826087384e-12       0.000000000000e+00       1.893488095583e-11       2.463642162014e-12      -8.797282229353e-15 
   79       2.953448260775e-10       6.269594211311e-14      -1.447385697448e-12       0.000000000000e+00       1.834715241528e-11       2.398702815853e-12      -8.661945101195e-15 
   80       2.991183114714e-10       6.473875287671e-14      -1.524301370496e-12       0.000000000000e+00       1.778369574488e-11       2.336376076456e-12      -8.543407223461e-15 
   81       3.029260436172e-10       6.679917060373e-14      -1.602530847835e-12       0.000000000000e+00       1.724337053833e-11       2.276530634151e-12      -8.441071316506e-15 
   82       3.067679325592e-10       6.887541951630e-14      -1.682030210315e-12       0.000000000000e+00       1.672462179201e-11       2.218988113968e-12      -8.354135962984e-15 
   83       3.106435313998e-10       7.096564500320e-14      -1.762753891730e-12       0.000000000000e+00       1.622546317336e-11       2.163521172139e-12      -8.281587565160e-15 
   84       3.145523310433e-10       7.306797366497e-14      -1.844654075136e-12       0.000000000000e+00       1.574395880127e-11       2.109908400500e-12      -8.222160950830e-15 
   85       3.184947391311e-10       7.518070710606e-14      -1.927678737497e-12       0.000000000000e+00       1.527979700485e-11       2.058113667254e-12      -8.174231304777e-15 
   86       3.224712318680e-10       7.730215856069e-14      -2.011773303944e-12       0.000000000000e+00       1.483294799703e-11       2.008133155363e-12      -8.135889492671e-15 
   87       3.264820439280e-10       7.943059470343e-14      -2.096881239013e-12       0.000000000000e+00       1.440318032911e-11       1.959940263306e-12      -8.104963376272e-15 
   88       3.305271560983e-10       8.156423566197e-14      -2.182944049677e-12       0.000000000000e+00       1.399005253752e-11       1.913484656328e-12      -8.079009243832e-15 
   89       3.346062829221e-10       8.370125502997e-14      -2.269901288371e-12       0.000000000000e+00       1.359290479057e-11       1.868691317697e-12      -8.055303240483e-15 
   90       3.387188603432e-10       8.583977987987e-14      -2.357690556020e-12       0.000000000000e+00       1.321085053524e-11       1.825459599955e-12      -8.030832798640e-15 
   91       3.428640333489e-10       8.797789077565e-14      -2.446247505071e-12       0.000000000000e+00       1.284276814393e-11       1.783662276176e-12      -8.002288068395e-15 
   92       3.470406436141e-10       9.011362178570e-14      -2.535505842520e-12       0.000000000000e+00       1.248729256121e-11       1.743144591214e-12      -7.966053347911e-15 
   93       3.512475777034e-10       9.224499344663e-14      -2.625398542086e-12       0.000000000000e+00       1.214313855327e-11       1.703762754460e-12      -7.919061882446e-15 
   94       3.554848984237e-10       9.437011729833e-14      -2.715861682705e-12       0.000000000000e+00       1.181014421257e-11       1.665508101227e-12      -7.861525937159e-15 
   95       3.597528615735e-10       9.648710716782e-14      -2.806831195633e-12       0.000000000000e+00       1.148836968232e-11       1.628399937998e-12      -7.794603393668e-15 
   96       3.640515632368e-10       9.859404807796e-14      -2.898241726103e-12       0.000000000000e+00       1.117777578735e-11       1.592447362927e-12      -7.719574204708e-15 
   97       3.683809323769e-10       1.006889967126e-13      -2.990026652948e-12       0.000000000000e+00       1.087822023265e-11       1.557648858497e-12      -7.637843675848e-15 
   98       3.727407234286e-10       1.027699818818e-13      -3.082118108227e-12       0.000000000000e+00       1.058945380207e-11       1.523991884188e-12      -7.550945747204e-15 
   99       3.771305088915e-10       1.048350049866e-13      -3.174446996857e-12       0.000000000000e+00       1.031111655688e-11       1.491452469130e-12      -7.460546275156e-15 
  100       3.815496719232e-10       1.068820404845e-13      -3.266943016233e-12       0.000000000000e+00       1.004273403441e-11       1.459994804766e-12      -7.368446314066e-15 
  101       3.859973989317e-10       1.089090363546e-13      -3.359534675855e-12       0.000000000000e+00       9.783713446675e-12       1.429570837515e-12      -7.276585397990e-15 
  102       3.904726721687e-10       1.109139145625e-13      -3.452149316960e-12       0.000000000000e+00       9.533339878979e-12       1.400119861431e-12      -7.187044822394e-15 
  103       3.949742623225e-10       1.128945715254e-13      -3.544713132142e-12       0.000000000000e+00       9.290772488534e-12       1.371568110865e-12      -7.102050925871e-15 
  104       3.995009826143e-10       1.148489295952e-13      -3.637151739257e-12       0.000000000000e+00       9.055234745489e-12       1.343845598280e-12      -7.023490785907e-15 
  105       4.040525061323e-10       1.167750984265e-13      -3.729391949162e-12       0.000000000000e+00       8.826622611433e-12       1.316940095497e-12      -6.951377729512e-15 
  106       4.086286456124e-10       1.186712363751e-13      -3.821360274472e-12       0.000000000000e+00       8.604971812543e-12       1.290849719077e-12      -6.885183688518e-15 
  107       4.132290973161e-10       1.205355024410e-13      -3.912982422016e-12       0.000000000000e+00       8.390269484673e-12       1.265566121134e-12      -6.824306223751e-15 
