# dimensionless total lensed [l(l+1)/2pi] C_l's
# for l=2 to 2500, i.e. number of multipoles equal to 2499
#
# -> if you prefer output in CAMB/HealPix/LensPix units/order, set 'format' to 'camb' in input file
# -> if you don't want to see such a header, set 'headers' to 'no' in input file
# -> for CMB lensing (phi), these are C_l^phi-phi for the lensing potential.
#    Remember the conversion factors:
#    C_l^dd (deflection) = l(l+1) C_l^phi-phi
#    C_l^gg (shear/convergence) = 1/4 (l(l+1))^2 C_l^phi-phi
#
# 1:l     2:TT                     3:EE                     4:TE                     5:BB                     6:phiphi                 7:TPhi                   8:Ephi               
    2       1.513637070662e-10       4.794144582132e-15       3.799554139636e-13       2.253184348698e-19       8.308900551433e-09       5.059094117512e-10      -2.012650403383e-12 
    3       1.417611783880e-10       6.054600103760e-15       4.281331449316e-13       4.507367882889e-19       5.129784860640e-09       3.573050235241e-10      -1.512211810662e-12 
    4       1.331022979639e-10       5.148953178938e-15       3.998152011285e-13       7.514479240433e-19       3.573399119904e-09       2.695788003883e-10      -9.767879447382e-13 
    5       1.266656494948e-10       3.373319539531e-15       3.391739430044e-13       1.127579291397e-18       2.668733887238e-09       2.123124798728e-10      -5.310262023696e-13 
    6       1.222157985187e-10       1.856553514385e-15       2.715860348085e-13       1.579285377175e-18       2.084679621117e-09       1.723344358310e-10      -2.072577161672e-13 
    7       1.192658723425e-10       9.991960340509e-16       2.117213167209e-13       2.106744712076e-18       1.680632406584e-09       1.430915571568e-10      -5.088506841824e-15 
    8       1.174570849553e-10       6.511178725166e-16       1.659058772484e-13       2.710156490507e-18       1.387196956144e-09       1.209769252562e-10       9.390925950982e-14 
    9       1.164908777667e-10       5.242226408974e-16       1.354166135982e-13       3.389736906815e-18       1.166706070492e-09       1.038398185357e-10       1.170784347571e-13 
   10       1.161197945942e-10       4.430147275790e-16       1.186520248264e-13       4.145715317815e-18       9.966326017512e-10       9.028015018220e-11       9.395857929966e-14 
   11       1.162474950390e-10       3.698566289618e-16       1.125803905258e-13       4.978330344722e-18       8.432440806201e-10       7.968568456630e-11       5.145216675268e-14 
   12       1.167281129357e-10       3.230795447251e-16       1.137757490589e-13       5.887826026699e-18       7.367156077007e-10       7.043613189404e-11       8.505975753324e-15 
   13       1.174919166673e-10       3.112405068110e-16       1.192643246821e-13       6.874448133465e-18       6.492654236297e-10       6.289358631235e-11      -2.257325918170e-14 
   14       1.184659910182e-10       3.231141053955e-16       1.268625301543e-13       7.938440735891e-18       5.765065054802e-10       5.630727325013e-11      -3.807907707291e-14 
   15       1.196479585585e-10       3.466834179386e-16       1.351519676196e-13       9.080043121591e-18       5.152627764380e-10       5.077072212898e-11      -3.911709500907e-14 
   16       1.209782146547e-10       3.813529923998e-16       1.435286460832e-13       1.029948712776e-17       4.631921930349e-10       4.602102476163e-11      -3.058988199778e-14 
   17       1.224464684636e-10       4.337519157579e-16       1.518942236578e-13       1.159699494637e-17       4.185254776176e-10       4.189304577742e-11      -1.835701129866e-14 
   18       1.240046921544e-10       5.088170217646e-16       1.604892228726e-13       1.297277722966e-17       3.797593112915e-10       3.827069696158e-11      -7.624499826673e-15 
   19       1.256644024522e-10       6.063019866501e-16       1.695543683786e-13       1.442703297143e-17       3.462753139024e-10       3.511430104392e-11      -8.584003371378e-16 
   20       1.274043792285e-10       7.236604874294e-16       1.792697589188e-13       1.595994656013e-17       3.167858656355e-10       3.233005904338e-11       6.145663492312e-16 
   21       1.292308648178e-10       8.602884419023e-16       1.895889112187e-13       1.757169084639e-17       2.908277741163e-10       2.986655698730e-11      -2.207629430553e-15 
   22       1.311254442253e-10       1.015837380827e-15       2.002900181636e-13       1.926242389327e-17       2.677791794102e-10       2.764725752069e-11      -7.115519247559e-15 
   23       1.330861358482e-10       1.190074376658e-15       2.109336483038e-13       2.103229357167e-17       2.473232262385e-10       2.564950108378e-11      -1.224083505459e-14 
   24       1.350958659729e-10       1.382722138011e-15       2.209767652128e-13       2.288143425698e-17       2.289873926688e-10       2.384564176980e-11      -1.575945806945e-14 
   25       1.371655069820e-10       1.594325387211e-15       2.301485151369e-13       2.480997320050e-17       2.125559555398e-10       2.222818534919e-11      -1.704041438787e-14 
   26       1.392956583832e-10       1.825894164333e-15       2.382733208289e-13       2.681802654434e-17       1.977313667485e-10       2.077748851940e-11      -1.603158623083e-14 
   27       1.414721394988e-10       2.079485557198e-15       2.452836330821e-13       2.890570536578e-17       1.843356758546e-10       1.946520033888e-11      -1.354538509134e-14 
   28       1.436681238729e-10       2.357471455485e-15       2.511740561583e-13       3.107311296501e-17       1.721378530189e-10       1.825330750619e-11      -1.073994629812e-14 
   29       1.458937781039e-10       2.661297846174e-15       2.560100403101e-13       3.332035434533e-17       1.610755353748e-10       1.714064502428e-11      -8.251045125582e-15 
   30       1.481601099884e-10       2.992107624866e-15       2.599148542903e-13       3.564752853664e-17       1.510298861040e-10       1.612901059451e-11      -6.645337908129e-15 
   31       1.504671119926e-10       3.350973459499e-15       2.630135835282e-13       3.805472855552e-17       1.417959438388e-10       1.521062931176e-11      -6.413584957489e-15 
   32       1.528171736363e-10       3.738814133522e-15       2.652506282681e-13       4.054205282075e-17       1.333259457475e-10       1.437508820523e-11      -7.275213544312e-15 
   33       1.552038463923e-10       4.156432341915e-15       2.665026276813e-13       4.310959800819e-17       1.255599138885e-10       1.360303374359e-11      -8.596681193161e-15 
   34       1.576138570154e-10       4.604584021122e-15       2.666284181695e-13       4.575745757980e-17       1.183890857084e-10       1.287148214980e-11      -9.698372885049e-15 
   35       1.600516496832e-10       5.084175860592e-15       2.654857180011e-13       4.848572664774e-17       1.117766990708e-10       1.218234083497e-11      -1.034715904149e-14 
   36       1.625216649571e-10       5.596128733292e-15       2.629175684847e-13       5.129449911437e-17       1.056696534190e-10       1.154303762180e-11      -1.042954245757e-14 
   37       1.650233515750e-10       6.141308789145e-15       2.587803777426e-13       5.418386547806e-17       9.998841122720e-11       1.095785092103e-11      -9.879792371388e-15 
   38       1.675591701310e-10       6.720481007078e-15       2.530602936254e-13       5.715390897283e-17       9.471824687106e-11       1.042489464591e-11      -8.879718480590e-15 
   39       1.701280038096e-10       7.334333351304e-15       2.457959734179e-13       6.020470840544e-17       8.984239523908e-11       9.937580961602e-12      -7.729742485257e-15 
   40       1.727221777719e-10       7.983483468069e-15       2.370492291788e-13       6.333633933623e-17       8.531429654708e-11       9.484975722455e-12      -6.801253613649e-15 
   41       1.753317924972e-10       8.668521594179e-15       2.268820689858e-13       6.654887032148e-17       8.107380370383e-11       9.055096709499e-12      -6.434234032025e-15 
   42       1.779609942599e-10       9.390166848601e-15       2.152754609455e-13       6.984234989620e-17       7.710839624215e-11       8.646947358182e-12      -6.579166149949e-15 
   43       1.806158992594e-10       1.014915428059e-14       2.021864843959e-13       7.321681554488e-17       7.340752005882e-11       8.261806880364e-12      -7.046177232072e-15 
   44       1.832997565960e-10       1.094619067492e-14       1.875701409791e-13       7.667229705713e-17       6.994421976556e-11       7.899817709819e-12      -7.599112972789e-15 
   45       1.860136463453e-10       1.178191640976e-14       1.713798834819e-13       8.020881198731e-17       6.668475676992e-11       7.560262268086e-12      -8.011565490842e-15 
   46       1.887595586758e-10       1.265678034651e-14       1.535700417229e-13       8.382635078137e-17       6.362396850885e-11       7.242731292033e-12      -8.261581873385e-15 
   47       1.915377039675e-10       1.357112543361e-14       1.340936521102e-13       8.752488693893e-17       6.075825976222e-11       6.946132007616e-12      -8.390365334634e-15 
   48       1.943453347663e-10       1.452521909030e-14       1.129014917216e-13       9.130438061457e-17       5.807493822561e-11       6.668262397781e-12      -8.449031128632e-15 
   49       1.971764916368e-10       1.551924984466e-14       8.994184848286e-14       9.516477820979e-17       5.555153824180e-11       6.405731416787e-12      -8.499173700657e-15 
   50       2.000247632830e-10       1.655335520627e-14       6.516663864742e-14       9.910601196479e-17       5.316257945616e-11       6.154944389983e-12      -8.599426874443e-15 
   51       2.028930397701e-10       1.762772200306e-14       3.855225001668e-14       1.031279995499e-16       5.090357449586e-11       5.915559643885e-12      -8.759527882469e-15 
   52       2.057859673956e-10       1.874250746848e-14       1.008395911491e-14       1.072306436580e-16       4.877236893211e-11       5.687832224821e-12      -8.974764891930e-15 
   53       2.087070561725e-10       1.989780854008e-14      -2.024985438857e-14       1.114138315962e-16       4.676195726628e-11       5.471601762675e-12      -9.238804369498e-15 
   54       2.116585675299e-10       2.109365996750e-14      -5.245763880483e-14       1.156774348782e-16       4.486015654010e-11       5.266262811584e-12      -9.543599081473e-15 
   55       2.146418181254e-10       2.233004696285e-14      -8.654520666811e-14       1.200213185124e-16       4.305331781525e-11       5.071025214244e-12      -9.878946563787e-15 
   56       2.176584369314e-10       2.360695116678e-14      -1.225176572478e-13       1.244453725032e-16       4.133928804480e-11       4.885838883964e-12      -1.023124685023e-14 
   57       2.207092237354e-10       2.492431278729e-14      -1.603778109905e-13       1.289494874606e-16       3.971709651151e-11       4.710646807722e-12      -1.058427499228e-14 
   58       2.237936663939e-10       2.628201576104e-14      -2.001256019335e-13       1.335335455599e-16       3.818303368544e-11       4.545097190514e-12      -1.091940023187e-14 
   59       2.269098447457e-10       2.767988642784e-14      -2.417580324066e-13       1.381974205111e-16       3.673048215374e-11       4.388525095665e-12      -1.121548038349e-14 
   60       2.300543345246e-10       2.911769220526e-14      -2.852691277330e-13       1.429409775291e-16       3.534974755041e-11       4.239934085145e-12      -1.144875621627e-14 
   61       2.332236653718e-10       3.059508960521e-14      -3.306507443116e-13       1.477640905646e-16       3.403074688541e-11       4.098268732500e-12      -1.159843093420e-14 
   62       2.364192946773e-10       3.211145764775e-14      -3.778953082979e-13       1.526666985874e-16       3.277216115419e-11       3.963345175450e-12      -1.166511102594e-14 
   63       2.396435847435e-10       3.366602453299e-14      -4.269936140637e-13       1.576487619401e-16       3.157404646102e-11       3.835097806801e-12      -1.165633607847e-14 
   64       2.428983013524e-10       3.525791212468e-14      -4.779340072007e-13       1.627102466989e-16       3.043508104990e-11       3.713297883465e-12      -1.158133221904e-14 
   65       2.461845669895e-10       3.688613301736e-14      -5.307023662990e-13       1.678511251903e-16       2.935248689741e-11       3.597544395945e-12      -1.145108688111e-14 
   66       2.495028140668e-10       3.854958760359e-14      -5.852820847254e-13       1.730713765091e-16       2.832195130561e-11       3.487254937817e-12      -1.127842357035e-14 
   67       2.528527381467e-10       4.024706114111e-14      -6.416540524022e-13       1.783709870353e-16       2.733754849496e-11       3.381656575216e-12      -1.107807663055e-14 
   68       2.562338403510e-10       4.197733247458e-14      -6.997966354325e-13       1.837499586548e-16       2.639331979271e-11       3.279988763176e-12      -1.086414631302e-14 
   69       2.596472867736e-10       4.373953233799e-14      -7.596856509134e-13       1.892083341961e-16       2.548856127006e-11       3.182180249072e-12      -1.064169805375e-14 
   70       2.630943435337e-10       4.553285271870e-14      -8.212943542618e-13       1.947461781012e-16       2.462347158834e-11       3.088293555375e-12      -1.041358748044e-14 
   71       2.665757897868e-10       4.735644155082e-14      -8.845934229672e-13       2.003635698799e-16       2.379755285919e-11       2.998321427650e-12      -1.018293712530e-14 
   72       2.700918860168e-10       4.920940263806e-14      -9.495509383153e-13       2.060606048245e-16       2.300957465681e-11       2.912183127239e-12      -9.953144191128e-15 
   73       2.736423423283e-10       5.109079557646e-14      -1.016132367111e-12       2.118373947238e-16       2.225753803013e-11       2.829720723929e-12      -9.727888317319e-15 
   74       2.772262867390e-10       5.299963567727e-14      -1.084300543403e-12       2.176940685784e-16       2.153863951507e-11       2.750695388634e-12      -9.511139345926e-15 
   75       2.808422334714e-10       5.493489388968e-14      -1.154015650205e-12       2.236307733139e-16       2.084923514675e-11       2.674783686072e-12      -9.307165087707e-15 
   76       2.844887386524e-10       5.689545130560e-14      -1.225236746385e-12       2.296476648628e-16       2.018574353195e-11       2.601661779653e-12      -9.119768117099e-15 
   77       2.881665755424e-10       5.887995326652e-14      -1.297926709167e-12       2.357448779496e-16       1.954762473899e-11       2.531283968644e-12      -8.949818315383e-15 
   78       2.918769002062e-10       6.088692838842e-14      -1.372048163904e-12       2.419225520677e-16       1.893488176405e-11       2.463648444124e-12      -8.797282393719e-15 
   79       2.956205819680e-10       6.291483062754e-14      -1.447562032055e-12       2.481808411331e-16       1.834715320075e-11       2.398712008982e-12      -8.661947033918e-15 
   80       2.993981858000e-10       6.496203827175e-14      -1.524427544603e-12       2.545199140008e-16       1.778369650850e-11       2.336388173302e-12      -8.543410845095e-15 
   81       3.032099547101e-10       6.702685293213e-14      -1.602602255455e-12       2.609399549817e-16       1.724337128100e-11       2.276545249753e-12      -8.441076320334e-15 
   82       3.070557921301e-10       6.910749853434e-14      -1.682042054855e-12       2.674411643600e-16       1.672462251457e-11       2.219004448972e-12      -8.354141793343e-15 
   83       3.109352443037e-10       7.120212031014e-14      -1.762701182790e-12       2.740237589092e-16       1.622546387660e-11       2.163537974960e-12      -8.281593395115e-15 
   84       3.148477959597e-10       7.330884478543e-14      -1.844531633673e-12       2.806879692991e-16       1.574395948591e-11       2.109924055651e-12      -8.222165740044e-15 
   85       3.187938522297e-10       7.542597337991e-14      -1.927481227610e-12       2.874340306876e-16       1.527979767160e-11       2.058126688675e-12      -8.174234114675e-15 
   86       3.227738879779e-10       7.755181920225e-14      -2.011495242487e-12       2.942621915096e-16       1.483294864661e-11       2.008142340172e-12      -8.135889585965e-15 
   87       3.267881368241e-10       7.968464892350e-14      -2.096516997401e-12       3.011727169064e-16       1.440318096220e-11       1.959944725235e-12      -8.104960240134e-15 
   88       3.308365787969e-10       8.182268279371e-14      -2.182487855832e-12       3.081658891902e-16       1.399005315477e-11       1.913483860198e-12      -8.079002613769e-15 
   89       3.349189279874e-10       8.396409465852e-14      -2.269347228825e-12       3.152420083091e-16       1.359290539262e-11       1.868685114911e-12      -8.055293124926e-15 
   90       3.390346202024e-10       8.610701197581e-14      -2.357032578167e-12       3.224013923112e-16       1.321085112267e-11       1.825448265024e-12      -8.030819504233e-15 
   91       3.431828006174e-10       8.824951583232e-14      -2.445479419564e-12       3.296443778095e-16       1.284276871727e-11       1.783646544271e-12      -8.002272225997e-15 
   92       3.473623114306e-10       9.038964096025e-14      -2.534621325818e-12       3.369713204463e-16       1.248729312091e-11       1.743125696748e-12      -7.966035939305e-15 
   93       3.515720386668e-10       9.252540895884e-14      -2.624391142738e-12       3.443826057521e-16       1.214313909973e-11       1.703742350523e-12      -7.919044179618e-15 
   94       3.558120390744e-10       9.465493363848e-14      -2.714724839156e-12       3.518786825812e-16       1.181014474618e-11       1.665487798862e-12      -7.861509162726e-15 
   95       3.600825606751e-10       9.677633162481e-14      -2.805558244523e-12       3.594600355871e-16       1.148837020347e-11       1.628381170095e-12      -7.794588619330e-15 
   96       3.643836913964e-10       9.888769103158e-14      -2.896825907327e-12       3.671271758754e-16       1.117777629641e-11       1.592431362581e-12      -7.719562333605e-15 
   97       3.687153516554e-10       1.009870719331e-13      -2.988461114923e-12       3.748806416114e-16       1.087822072999e-11       1.557636636748e-12      -7.637835424414e-15 
   98       3.730772869419e-10       1.030725068365e-13      -3.080395913350e-12       3.827209986269e-16       1.058945428806e-11       1.523984207129e-12      -7.550941626516e-15 
   99       3.774690604019e-10       1.051420011545e-13      -3.172561127161e-12       3.906488410278e-16       1.031111703185e-11       1.491449834404e-12      -7.460546571787e-15 
  100       3.818900454206e-10       1.071935336774e-13      -3.264886379246e-12       3.986647918010e-16       1.004273449868e-11       1.459997417438e-12      -7.368451070427e-15 
  101       3.863394182064e-10       1.092250570457e-13      -3.357300110656e-12       4.067695034223e-16       9.783713900536e-12       1.429578585318e-12      -7.276594392176e-15 
  102       3.908161503735e-10       1.112344982228e-13      -3.449729600427e-12       4.149636584629e-16       9.533340322689e-12       1.400132289398e-12      -7.187057547528e-15 
  103       3.953190015259e-10       1.132197589669e-13      -3.542100985406e-12       4.232479701971e-16       9.290772922315e-12       1.371584395328e-12      -7.102066568944e-15 
  104       3.998467746267e-10       1.151787673944e-13      -3.634339831349e-12       4.316231598227e-16       9.055235169525e-12       1.343864603045e-12      -7.023508276903e-15 
  105       4.043991373705e-10       1.171096395852e-13      -3.726372891372e-12       4.400898833088e-16       8.826623025914e-12       1.316960688465e-12      -6.951396013311e-15 
  106       4.089758984562e-10       1.190105407901e-13      -3.818126623107e-12       4.486487957526e-16       8.604972217662e-12       1.290870862602e-12      -6.885201803316e-15 
  107       4.135767502346e-10       1.208796373111e-13      -3.909526684208e-12       4.573005742295e-16       8.390269880631e-12       1.265586883026e-12      -6.824323311659e-15 
