# dimensionless total [l(l+1)/2pi] C_l's
# for l=2 to 3000, i.e. number of multipoles equal to 2999
#
# -> if you prefer output in CAMB/HealPix/LensPix units/order, set 'format' to 'camb' in input file
# -> if you don't want to see such a header, set 'headers' to 'no' in input file
# -> for CMB lensing (phi), these are C_l^phi-phi for the lensing potential.
#    Remember the conversion factors:
#    C_l^dd (deflection) = l(l+1) C_l^phi-phi
#    C_l^gg (shear/convergence) = 1/4 (l(l+1))^2 C_l^phi-phi
#
# 1:l     2:TT                     3:EE                     4:TE                     5:BB                     6:phiphi                 7:TPhi                   8:Ephi               
    2       1.513633627662e-10       4.793923730973e-15       3.799557718910e-13       0.000000000000e+00       8.308908293319e-09       5.059098842634e-10      -2.012652277651e-12 
    3       1.417603422207e-10       6.054155008678e-15       4.281335626099e-13       0.000000000000e+00       5.129789637402e-09       3.573053574669e-10      -1.512213220999e-12 
    4       1.331008129985e-10       5.148206526100e-15       3.998156270041e-13       0.000000000000e+00       3.573402443034e-09       2.695790505251e-10      -9.767888562807e-13 
    5       1.266633630241e-10       3.372195095489e-15       3.391743808090e-13       0.000000000000e+00       2.668736365592e-09       2.123126760842e-10      -5.310266981048e-13 
    6       1.222125624938e-10       1.854975937879e-15       2.715865277338e-13       0.000000000000e+00       2.084681554710e-09       1.723345974153e-10      -2.072579095163e-13 
    7       1.192615393543e-10       9.970901717255e-16       2.117219399911e-13       0.000000000000e+00       1.680633966313e-09       1.430916927940e-10      -5.088511240878e-15 
    8       1.174515135995e-10       6.484082226799e-16       1.659067326071e-13       0.000000000000e+00       1.387198246444e-09       1.209770374726e-10       9.390934710748e-14 
    9       1.164839291382e-10       5.208332049317e-16       1.354178269732e-13       0.000000000000e+00       1.166707157936e-09       1.038399126763e-10       1.170785432536e-13 
   10       1.161113392860e-10       4.388690983737e-16       1.186537454449e-13       0.000000000000e+00       9.966335321327e-10       9.028023465416e-11       9.395866640936e-14 
   11       1.162374015013e-10       3.648781081255e-16       1.125827903123e-13       0.000000000000e+00       8.432448683473e-10       7.968576243569e-11       5.145221532169e-14 
   12       1.167162598765e-10       3.171911872605e-16       1.137790244348e-13       0.000000000000e+00       7.367162960008e-10       7.043619837632e-11       8.505984739259e-15 
   13       1.174781811466e-10       3.043651109713e-16       1.192686953551e-13       0.000000000000e+00       6.492660303050e-10       6.289364104809e-11      -2.257328004886e-14 
   14       1.184502661997e-10       3.151741993258e-16       1.268682433008e-13       0.000000000000e+00       5.765070442404e-10       5.630732392282e-11      -3.807911336133e-14 
   15       1.196301288090e-10       3.376012661174e-16       1.351592968270e-13       0.000000000000e+00       5.152632580293e-10       5.077077398790e-11      -3.911713227097e-14 
   16       1.209581791188e-10       3.710506278115e-16       1.435378910787e-13       0.000000000000e+00       4.631926260178e-10       4.602107149975e-11      -3.058991092656e-14 
   17       1.224241159248e-10       4.221511643565e-16       1.519057145274e-13       0.000000000000e+00       4.185258689014e-10       4.189308074330e-11      -1.835702861890e-14 
   18       1.239799286688e-10       4.958395304648e-16       1.605033143391e-13       0.000000000000e+00       3.797596663836e-10       3.827072974669e-11      -7.624506473746e-15 
   19       1.256371369357e-10       5.918692536964e-16       1.695714418363e-13       0.000000000000e+00       3.462756377330e-10       3.511433725950e-11      -8.584001081011e-16 
   20       1.273745147318e-10       7.076938987286e-16       1.792902228913e-13       0.000000000000e+00       3.167861619326e-10       3.233009250998e-11       6.145675252654e-16 
   21       1.291983078785e-10       8.427093155668e-16       1.896131982123e-13       0.000000000000e+00       2.908280461757e-10       2.986658356934e-11      -2.207631300680e-15 
   22       1.310901074937e-10       9.965670157732e-16       2.003185827305e-13       0.000000000000e+00       2.677794299473e-10       2.764727988240e-11      -7.115524778760e-15 
   23       1.330479331634e-10       1.169034106420e-15       2.109669672191e-13       0.000000000000e+00       2.473234576729e-10       2.564952353539e-11      -1.224084471094e-14 
   24       1.350547105010e-10       1.359833387026e-15       2.210153361532e-13       0.000000000000e+00       2.289876069792e-10       2.384566751265e-11      -1.575947276283e-14 
   25       1.371213126401e-10       1.569509723258e-15       2.301928535447e-13       0.000000000000e+00       2.125561545036e-10       2.222821183058e-11      -1.704043288924e-14 
   26       1.392483399876e-10       1.799073356858e-15       2.383239580621e-13       0.000000000000e+00       1.977315518655e-10       2.077750733647e-11      -1.603160468101e-14 
   27       1.414216121670e-10       2.050581629465e-15       2.453411179011e-13       0.000000000000e+00       1.843358484585e-10       1.946520856580e-11      -1.354540043466e-14 
   28       1.436143031285e-10       2.326406743133e-15       2.512389536196e-13       0.000000000000e+00       1.721380142277e-10       1.825331083445e-11      -1.073995748571e-14 
   29       1.458365821894e-10       2.627995045278e-15       2.560829274981e-13       0.000000000000e+00       1.610756862482e-10       1.714065006148e-11      -8.251052274111e-15 
   30       1.480994609710e-10       2.956489853695e-15       2.599963171781e-13       0.000000000000e+00       1.510300275910e-10       1.612902207287e-11      -6.645342234676e-15 
   31       1.504029355914e-10       3.312964316973e-15       2.631042142707e-13       0.000000000000e+00       1.417960766969e-10       1.521064933356e-11      -6.413588709043e-15 
   32       1.527493962497e-10       3.698337722429e-15       2.653510225695e-13       0.000000000000e+00       1.333260706899e-10       1.437511555577e-11      -7.275218752751e-15 
   33       1.551323938552e-10       4.113413317963e-15       2.666133818097e-13       0.000000000000e+00       1.255600315723e-10       1.360306305077e-11      -8.596689145335e-15 
   34       1.575386548174e-10       4.558947645494e-15       2.667501254669e-13       0.000000000000e+00       1.183891966890e-10       1.287150459326e-11      -9.698383907484e-15 
   35       1.599726258572e-10       5.035848026138e-15       2.656189643403e-13       0.000000000000e+00       1.117768038696e-10       1.218235052136e-11      -1.034717239249e-14 
   36       1.624387512745e-10       5.545036010241e-15       2.630629280718e-13       0.000000000000e+00       1.056697525078e-10       1.154303437197e-11      -1.042955612056e-14 
   37       1.649364840725e-10       6.087378474964e-15       2.589384085753e-13       0.000000000000e+00       9.998850500363e-11       1.095784013139e-11      -9.879803314139e-15 
   38       1.674682896029e-10       6.663641162593e-15       2.532315315297e-13       0.000000000000e+00       9.471833571883e-11       1.042488189797e-11      -8.879724665955e-15 
   39       1.700330563965e-10       7.274512847686e-15       2.459809266489e-13       0.000000000000e+00       8.984247952597e-11       9.937570167910e-12      -7.729743729521e-15 
   40       1.726231156144e-10       7.920612038584e-15       2.372483730979e-13       0.000000000000e+00       8.531437659700e-11       9.484968635620e-12      -6.801252010616e-15 
   41       1.752285732270e-10       8.602529889975e-15       2.270958403690e-13       0.000000000000e+00       8.107387978423e-11       9.055092916518e-12      -6.434233650543e-15 
   42       1.778535764502e-10       9.320986506059e-15       2.155042516247e-13       0.000000000000e+00       7.710846860912e-11       8.646946000910e-12      -6.579170202830e-15 
   43       1.805042406721e-10       1.007671798233e-14       2.024306349453e-13       0.000000000000e+00       7.340758895920e-11       8.261807155425e-12      -7.046186995611e-15 
   44       1.831838134809e-10       1.087043220901e-14       1.878299342640e-13       0.000000000000e+00       6.994428542170e-11       7.899818900456e-12      -7.599127364085e-15 
   45       1.858933738116e-10       1.170277074721e-14       1.716555382987e-13       0.000000000000e+00       6.668481937328e-11       7.560263777714e-12      -8.011581295107e-15 
   46       1.886349147580e-10       1.257418377726e-14       1.538617073347e-13       0.000000000000e+00       6.362402824607e-11       7.242732678151e-12      -8.261596211645e-15 
   47       1.914086510341e-10       1.348501566336e-14       1.344014017278e-13       0.000000000000e+00       6.075831681626e-11       6.946133019315e-12      -8.390376518447e-15 
   48       1.942118399339e-10       1.443553532378e-14       1.132253154416e-13       0.000000000000e+00       5.807499276724e-11       6.668263016011e-12      -8.449038911669e-15 
   49       1.970385272088e-10       1.542593287091e-14       9.028164599500e-14       0.000000000000e+00       5.555159042036e-11       6.405731896843e-12      -8.499179544232e-15 
   50       1.998823062383e-10       1.645634750742e-14       6.552221292759e-14       0.000000000000e+00       5.316262939676e-11       6.154945226673e-12      -8.599433727844e-15 
   51       2.027460680407e-10       1.752696793606e-14       3.892330482875e-14       0.000000000000e+00       5.090362231942e-11       5.915561274765e-12      -8.759538320052e-15 
   52       2.056344585259e-10       1.863795339722e-14       1.047009333845e-14       0.000000000000e+00       4.877241475767e-11       5.687834928118e-12      -8.974780471534e-15 
   53       2.085509868540e-10       1.978940295098e-14      -1.984915372663e-14       0.000000000000e+00       4.676200120647e-11       5.471605627088e-12      -9.238825441739e-15 
   54       2.114979131152e-10       2.098135358807e-14      -5.204300367224e-14       0.000000000000e+00       4.486019869632e-11       5.266267704564e-12      -9.543624589503e-15 
   55       2.144765528718e-10       2.221379285965e-14      -8.611739170343e-14       0.000000000000e+00       4.305335827631e-11       5.071030794891e-12      -9.878974177901e-15 
   56       2.174885366977e-10       2.348670476793e-14      -1.220775316327e-13       0.000000000000e+00       4.133932689751e-11       4.885844766167e-12      -1.023127422625e-14 
   57       2.205346667969e-10       2.480003196700e-14      -1.599263594976e-13       0.000000000000e+00       3.971713384177e-11       4.710652607731e-12      -1.058430016866e-14 
   58       2.236144335661e-10       2.615366094851e-14      -1.996639293886e-13       0.000000000000e+00       3.818306957565e-11       4.545102531938e-12      -1.091942171063e-14 
   59       2.267259195154e-10       2.754742071831e-14      -2.412873681821e-13       0.000000000000e+00       3.673051668010e-11       4.388529614757e-12      -1.121549721509e-14 
   60       2.298657031887e-10       2.898108147313e-14      -2.847908302740e-13       0.000000000000e+00       3.534978078001e-11       4.239937436372e-12      -1.144876808835e-14 
   61       2.330303171965e-10       3.045430251104e-14      -3.301663047317e-13       0.000000000000e+00       3.403077887589e-11       4.098270611450e-12      -1.159843815210e-14 
   62       2.362212221079e-10       3.196646529367e-14      -3.774063508713e-13       0.000000000000e+00       3.277219196195e-11       3.963345397676e-12      -1.166511413140e-14 
   63       2.394407835888e-10       3.351680039426e-14      -4.265018991780e-13       0.000000000000e+00       3.157407614255e-11       3.835096343842e-12      -1.165633575547e-14 
   64       2.426907709642e-10       3.510443208132e-14      -4.774414352107e-13       0.000000000000e+00       3.043510966045e-11       3.713294883735e-12      -1.158132930487e-14 
   65       2.459723104497e-10       3.672837538462e-14      -5.302109813823e-13       0.000000000000e+00       2.935251448966e-11       3.597540206446e-12      -1.145108237783e-14 
   66       2.492858383835e-10       3.838753316105e-14      -5.847940787392e-13       0.000000000000e+00       2.832197792821e-11       3.487250126675e-12      -1.127841865649e-14 
   67       2.526310544570e-10       4.008069316051e-14      -6.411717687417e-13       0.000000000000e+00       2.733757419105e-11       3.381651955049e-12      -1.107807267323e-14 
   68       2.560074642070e-10       4.180663660309e-14      -6.993225708219e-13       0.000000000000e+00       2.639334459986e-11       3.279985338762e-12      -1.086414479266e-14 
   69       2.594162386760e-10       4.356449601656e-14      -7.592224505062e-13       0.000000000000e+00       2.548858522519e-11       3.182178918297e-12      -1.064170020526e-14 
   70       2.628586492820e-10       4.535346496839e-14      -8.208448120730e-13       0.000000000000e+00       2.462349472857e-11       3.088295008166e-12      -1.041359416081e-14 
   71       2.663354807695e-10       4.717269288920e-14      -8.841604842026e-13       0.000000000000e+00       2.379757522117e-11       2.998326115890e-12      -1.018294876195e-14 
   72       2.698469995114e-10       4.902128499069e-14      -9.491377016499e-13       0.000000000000e+00       2.300959627605e-11       2.912191233550e-12      -9.953160728325e-15 
   73       2.733929218110e-10       5.089830218344e-14      -1.015742086915e-12       0.000000000000e+00       2.225755894027e-11       2.829732129328e-12      -9.727909160699e-15 
   74       2.769723822042e-10       5.280276099477e-14      -1.083936631918e-12       0.000000000000e+00       2.153865974713e-11       2.750709639054e-12      -9.511163305083e-15 
   75       2.805839017611e-10       5.473363348664e-14      -1.153681679667e-12       0.000000000000e+00       2.084925472835e-11       2.674799957750e-12      -9.307190316877e-15 
   76       2.842260430880e-10       5.668980175925e-14      -1.224936451772e-12       0.000000000000e+00       2.018576248733e-11       2.601678940214e-12      -9.119792249593e-15 
   77       2.878995832958e-10       5.866991206558e-14      -1.297663993080e-12       0.000000000000e+00       1.954764309192e-11       2.531300947880e-12      -8.949839224275e-15 
   78       2.916056815351e-10       6.067249382109e-14      -1.371827099604e-12       0.000000000000e+00       1.893489953828e-11       2.463664349758e-12      -8.797298437533e-15 
   79       2.953452101176e-10       6.269600166088e-14      -1.447386865838e-12       0.000000000000e+00       1.834717041970e-11       2.398726151463e-12      -8.661957118846e-15 
   80       2.991187368999e-10       6.473881442629e-14      -1.524302698119e-12       0.000000000000e+00       1.778371319491e-11       2.336400091452e-12      -8.543414489316e-15 
   81       3.029265076663e-10       6.679923415148e-14      -1.602532328003e-12       0.000000000000e+00       1.724338745651e-11       2.276554737268e-12      -8.441073720428e-15 
   82       3.067684285130e-10       6.887548505003e-14      -1.682031825633e-12       0.000000000000e+00       1.672463819939e-11       2.219011581783e-12      -8.354133892806e-15 
   83       3.106440482304e-10       7.096571250157e-14      -1.762755613110e-12       0.000000000000e+00       1.622547908906e-11       2.163543139438e-12      -8.281581954969e-15 
   84       3.145528541735e-10       7.306804309954e-14      -1.844655863644e-12       0.000000000000e+00       1.574397424252e-11       2.109927906262e-12      -8.222153200848e-15 
   85       3.184952548150e-10       7.518077845217e-14      -1.927680555253e-12       0.000000000000e+00       1.527981198862e-11       2.058129878631e-12      -8.174222788383e-15 
   86       3.224717285362e-10       7.730223180098e-14      -2.011775117422e-12       0.000000000000e+00       1.483296254025e-11       2.008145442841e-12      -8.135881410170e-15 
   87       3.264825124580e-10       7.943066982874e-14      -2.096883019639e-12       0.000000000000e+00       1.440319444850e-11       1.959948223284e-12      -8.104956731711e-15 
   88       3.305275900924e-10       8.156431267239e-14      -2.182945774445e-12       0.000000000000e+00       1.399006624937e-11       1.913488134378e-12      -8.079004821079e-15 
   89       3.346066789945e-10       8.370133393578e-14      -2.269902940479e-12       0.000000000000e+00       1.359291811054e-11       1.868690432509e-12      -8.055301578573e-15 
   90       3.387192184148e-10       8.583986070259e-14      -2.357692125528e-12       0.000000000000e+00       1.321086347815e-11       1.825454767960e-12      -8.030834166381e-15 
   91       3.428643569513e-10       8.797797354912e-14      -2.446248989573e-12       0.000000000000e+00       1.284278072349e-11       1.783654236852e-12      -8.002292438242e-15 
   92       3.470409402010e-10       9.011370655714e-14      -2.535507247835e-12       0.000000000000e+00       1.248730478982e-11       1.743134433077e-12      -7.966060369103e-15 
   93       3.512478580349e-10       9.224508027208e-14      -2.625399881470e-12       0.000000000000e+00       1.214315044208e-11       1.703751852029e-12      -7.919070919167e-15 
   94       3.554851729872e-10       9.437020621992e-14      -2.715862971311e-12       0.000000000000e+00       1.181015577257e-11       1.665497768125e-12      -7.861536314560e-15 
   95       3.597531395351e-10       9.648719820648e-14      -2.806832449036e-12       0.000000000000e+00       1.148838092459e-11       1.628391322291e-12      -7.794614466073e-15 
   96       3.640518522862e-10       9.859414123163e-14      -2.898242960265e-12       0.000000000000e+00       1.117778672290e-11       1.592441427814e-12      -7.719585361015e-15 
   97       3.683812385664e-10       1.006890919543e-13      -2.990027884180e-12       0.000000000000e+00       1.087823087238e-11       1.557646362456e-12      -7.637854345093e-15 
   98       3.727410510085e-10       1.027700791575e-13      -3.082119353154e-12       0.000000000000e+00       1.058946415662e-11       1.523993360564e-12      -7.550955404298e-15 
   99       3.771308601411e-10       1.048351042137e-13      -3.174448272374e-12       0.000000000000e+00       1.031112663655e-11       1.491458205181e-12      -7.460554446783e-15 
  100       3.815500469766e-10       1.068821415493e-13      -3.266944339465e-12       0.000000000000e+00       1.004274384905e-11       1.460004820159e-12      -7.368452584751e-15 
  101       3.859977956002e-10       1.089091391104e-13      -3.359536064116e-12       0.000000000000e+00       9.783723005531e-12       1.429584862268e-12      -7.276589416333e-15 
  102       3.904730857578e-10       1.109140188275e-13      -3.452150787704e-12       0.000000000000e+00       9.533349190615e-12       1.400137313309e-12      -7.187046307474e-15 
  103       3.949746854452e-10       1.128946770804e-13      -3.544714702917e-12       0.000000000000e+00       9.290781560688e-12       1.371588072221e-12      -7.102049673815e-15 
  104       3.995014056581e-10       1.148490361956e-13      -3.637153426972e-12       0.000000000000e+00       9.055243585138e-12       1.343866871993e-12      -7.023486670723e-15 
  105       4.040529198004e-10       1.167752058581e-13      -3.729393767170e-12       0.000000000000e+00       8.826631225455e-12       1.316961511504e-12      -6.951370685496e-15 
  106       4.086290416642e-10       1.186713444721e-13      -3.821362231535e-12       0.000000000000e+00       8.604980207846e-12       1.290870223295e-12      -6.885173708897e-15 
  107       4.132294686764e-10       1.205356110903e-13      -3.912984521925e-12       0.000000000000e+00       8.390277668152e-12       1.265584788086e-12      -6.824293365111e-15 
