# Matter power spectrum P(k) at redshift z=99
# for k=1.00899e-05 to 203.102 h/Mpc,
# number of wavenumbers equal to 845
#    1:k (h/Mpc)              2:P (Mpc/h)^3        
       1.008985923246e-05       4.868384554713e-03 
       2.251775554681e-05       3.993226332144e-02 
       3.498636120247e-05       4.131471032300e-02 
       4.752690064658e-05       4.678300286686e-02 
       6.017107953230e-05       5.235996868022e-02 
       7.295134796122e-05       6.148014597796e-02 
       8.590117158737e-05       6.929584630288e-02 
       9.905531395762e-05       7.683672943300e-02 
       1.124501334903e-04       8.669989545944e-02 
       1.261238985241e-04       9.661835649901e-02 
       1.401171238832e-04       1.067407896080e-01 
       1.544729323814e-04       1.179907459059e-01 
       1.692374445844e-04       1.285069389593e-01 
       1.844601999316e-04       1.399746378953e-01 
       2.001946119095e-04       1.512303990351e-01 
       2.164984592990e-04       1.635543356220e-01 
       2.334344144703e-04       1.759450671621e-01 
       2.510706081373e-04       1.879856470218e-01 
       2.694812277303e-04       2.012314186652e-01 
       2.887471433953e-04       2.151216909247e-01 
       3.089565513139e-04       2.294841464553e-01 
       3.302056182976e-04       2.445072350015e-01 
       3.525991041420e-04       2.604176808311e-01 
       3.762509287930e-04       2.771416627517e-01 
       4.012846398372e-04       2.948534374738e-01 
       4.278337222871e-04       3.135445822963e-01 
       4.560416775835e-04       3.332962156390e-01 
       4.860617833145e-04       3.543212340662e-01 
       5.180564313506e-04       3.765775607595e-01 
       5.521959330390e-04       4.004339587017e-01 
       5.886566801031e-04       4.256858702524e-01 
       6.276185643138e-04       4.525953716049e-01 
       6.692615934693e-04       4.813018858973e-01 
       7.137617003222e-04       5.117998847947e-01 
       7.612858261435e-04       5.442763010428e-01 
       8.119864671933e-04       5.788136806343e-01 
       8.659959882004e-04       6.154262198269e-01 
       9.234211115549e-04       6.541690742914e-01 
       9.843380583383e-04       6.951322164490e-01 
       1.048788822492e-03       7.382592974020e-01 
       1.116778986862e-03       7.835150172293e-01 
       1.188277341593e-03       8.309029419471e-01 
       1.263217364035e-03       8.802973984775e-01 
       1.341500403710e-03       9.316070847595e-01 
       1.423000229794e-03       9.846812088689e-01 
       1.507568477172e-03       1.039489157513e+00 
       1.595040487038e-03       1.095774784087e+00 
       1.685241074673e-03       1.153415377299e+00 
       1.777989849548e-03       1.212274409619e+00 
       1.873105833077e-03       1.272190492987e+00 
       1.970411240942e-03       1.333003739717e+00 
       2.069734400901e-03       1.394561800834e+00 
       2.170911853969e-03       1.456741985186e+00 
       2.273789735124e-03       1.519412934996e+00 
       2.378224553043e-03       1.582430371549e+00 
       2.484083492891e-03       1.645704496035e+00 
       2.591244358339e-03       1.709108971610e+00 
       2.699595254278e-03       1.772552980266e+00 
       2.809034094327e-03       1.835944250501e+00 
       2.919467999818e-03       1.899201929661e+00 
       3.030812641171e-03       1.962253319864e+00 
       3.142991559080e-03       2.025016206540e+00 
       3.255935491967e-03       2.087434662555e+00 
       3.369581727509e-03       2.149452552721e+00 
       3.483873489548e-03       2.211013069595e+00 
       3.598759366763e-03       2.272066518245e+00 
       3.714192786088e-03       2.332572651930e+00 
       3.830131531369e-03       2.392492249085e+00 
       3.946537306183e-03       2.451783690010e+00 
       4.063375338686e-03       2.510422358066e+00 
       4.180614025754e-03       2.568372374414e+00 
       4.298224613405e-03       2.625613019524e+00 
       4.416180910359e-03       2.682119070831e+00 
       4.534459031676e-03       2.737868265990e+00 
       4.653037169509e-03       2.792845352132e+00 
       4.771895388214e-03       2.847033692135e+00 
       4.891015441268e-03       2.900419576485e+00 
       5.010380607654e-03       2.952990681652e+00 
       5.129975545600e-03       3.004736927459e+00 
       5.249786161774e-03       3.055651752497e+00 
       5.369799494223e-03       3.105727533063e+00 
       5.490003607537e-03       3.154959637594e+00 
       5.610387498875e-03       3.203342464859e+00 
       5.730941013670e-03       3.250877127250e+00 
       5.851654769906e-03       3.297562051217e+00 
       5.972520090068e-03       3.343394957485e+00 
       6.093528939880e-03       3.388378338258e+00 
       6.214673873133e-03       3.432513894613e+00 
       6.335947981903e-03       3.475806587036e+00 
       6.457344851613e-03       3.518257206987e+00 
       6.578858520406e-03       3.559870258537e+00 
       6.700483442374e-03       3.600650364612e+00 
       6.822214454238e-03       3.640606129273e+00 
       6.944046745134e-03       3.679739610802e+00 
       7.065975829162e-03       3.718062435568e+00 
       7.187997520434e-03       3.755582332712e+00 
       7.310107910369e-03       3.792302826211e+00 
       7.432303346994e-03       3.828228693137e+00 
       7.554580416073e-03       3.863374675066e+00 
       7.676935923868e-03       3.897750864297e+00 
       7.799366881390e-03       3.931359116010e+00 
       7.921870489981e-03       3.964206053259e+00 
       8.044444128110e-03       3.996313472971e+00 
       8.167085339271e-03       4.027678934657e+00 
       8.289791820870e-03       4.058316669146e+00 
       8.412561414027e-03       4.088238744582e+00 
       8.535392094189e-03       4.117443974518e+00 
       8.658281962499e-03       4.145950533570e+00 
       8.781229237845e-03       4.173764180157e+00 
       8.904232249532e-03       4.200896191039e+00 
       9.027289430517e-03       4.227353733199e+00 
       9.150399311170e-03       4.253144235069e+00 
       9.273560513504e-03       4.278284514908e+00 
       9.396771745844e-03       4.302773581267e+00 
       9.520031797891e-03       4.326619934852e+00 
       9.643339536152e-03       4.349846489778e+00 
       9.766693899711e-03       4.372442677768e+00 
       9.890093896300e-03       4.394427724455e+00 
       1.001353859866e-02       4.415809878781e+00 
       1.013702714118e-02       4.436598452900e+00 
       1.026055871672e-02       4.456791432154e+00 
       1.038413257374e-02       4.476404722611e+00 
       1.050774801356e-02       4.495446820809e+00 
       1.063140438788e-02       4.513917903099e+00 
       1.075510109639e-02       4.531834542760e+00 
       1.087883758462e-02       4.549200216385e+00 
       1.100261334193e-02       4.566018524573e+00 
       1.112642789957e-02       4.582302175134e+00 
       1.125028082899e-02       4.598051452651e+00 
       1.137417174014e-02       4.613283275289e+00 
       1.149810028000e-02       4.627988678721e+00 
       1.162206613114e-02       4.642189810229e+00 
       1.174606901039e-02       4.655884637339e+00 
       1.187010866765e-02       4.669076474823e+00 
       1.199418488471e-02       4.681781715062e+00 
       1.211829747421e-02       4.693995601624e+00 
       1.224244627863e-02       4.705733771377e+00 
       1.236663116941e-02       4.716992918318e+00 
       1.249085204607e-02       4.727792141132e+00 
       1.261510883545e-02       4.738120132063e+00 
       1.273940149094e-02       4.747997709788e+00 
       1.286372999182e-02       4.757421420422e+00 
       1.298809434267e-02       4.766397115508e+00 
       1.311249457272e-02       4.774932827536e+00 
       1.323693073542e-02       4.783034064960e+00 
       1.336140290784e-02       4.790702778442e+00 
       1.348591119034e-02       4.797953405004e+00 
       1.361045570605e-02       4.804781229133e+00 
       1.373503660061e-02       4.811193084545e+00 
       1.385965404174e-02       4.817198461704e+00 
       1.398430821901e-02       4.822799857643e+00 
       1.410899934352e-02       4.828000434360e+00 
       1.423372764771e-02       4.832811912506e+00 
       1.435849338511e-02       4.837233388242e+00 
       1.448329683018e-02       4.841272677313e+00 
       1.460813827812e-02       4.844933166771e+00 
       1.473301804481e-02       4.848219445493e+00 
       1.485793646664e-02       4.851136650820e+00 
       1.498289390044e-02       4.853692677040e+00 
       1.510789072347e-02       4.855889492338e+00 
       1.523292733332e-02       4.857732789278e+00 
       1.535800414793e-02       4.859227134439e+00 
       1.548312160558e-02       4.860375921671e+00 
       1.560828016494e-02       4.861187267923e+00 
       1.573348030509e-02       4.861657246001e+00 
       1.585872252561e-02       4.861811054631e+00 
       1.598400734663e-02       4.861638349430e+00 
       1.610933530897e-02       4.861130576452e+00 
       1.623470697422e-02       4.860313125841e+00 
       1.636012292492e-02       4.859187722875e+00 
       1.648558376469e-02       4.857755337089e+00 
       1.661109011841e-02       4.856017376852e+00 
       1.673664263240e-02       4.853984338863e+00 
       1.686224197463e-02       4.851655673633e+00 
       1.698788883495e-02       4.849034575000e+00 
       1.711358392534e-02       4.846137971766e+00 
       1.723932798012e-02       4.842946171929e+00 
       1.736512175629e-02       4.839501223234e+00 
       1.749096603375e-02       4.835766927669e+00 
       1.761686161566e-02       4.831773016424e+00 
       1.774280932873e-02       4.827505019809e+00 
       1.786881002356e-02       4.822986280943e+00 
       1.799486457501e-02       4.818212350290e+00 
       1.812097388257e-02       4.813183824068e+00 
       1.824713887072e-02       4.807913341133e+00 
       1.837336048938e-02       4.802394251638e+00 
       1.849963971429e-02       4.796648541116e+00 
       1.862597754748e-02       4.790643276911e+00 
       1.875237501771e-02       4.784420209451e+00 
       1.887883318094e-02       4.777959719460e+00 
       1.900535312085e-02       4.771296727117e+00 
       1.913193594933e-02       4.764406299446e+00 
       1.925858280700e-02       4.757290425536e+00 
       1.938529486380e-02       4.749966332518e+00 
       1.951207331950e-02       4.742428581202e+00 
       1.963891940434e-02       4.734691065556e+00 
       1.976583437961e-02       4.726749001209e+00 
       1.989281953829e-02       4.718612816910e+00 
       2.001987620571e-02       4.710279455973e+00 
       2.014700574018e-02       4.701759388096e+00 
       2.027420953374e-02       4.693035600964e+00 
       2.040148901283e-02       4.684151426363e+00 
       2.052884563906e-02       4.675072809575e+00 
       2.065628090997e-02       4.665817077929e+00 
       2.078379635978e-02       4.656379978746e+00 
       2.091139356027e-02       4.646789188203e+00 
       2.103907412157e-02       4.637024797055e+00 
       2.116683969302e-02       4.627090526829e+00 
       2.129469196411e-02       4.617000961215e+00 
       2.142263266535e-02       4.606752709989e+00 
       2.155066356926e-02       4.596341351546e+00 
       2.167878649131e-02       4.585792049407e+00 
       2.180700329099e-02       4.575079656199e+00 
       2.193531587278e-02       4.564231145027e+00 
       2.206372618728e-02       4.553242446131e+00 
       2.219223623229e-02       4.542110537961e+00 
       2.232084805397e-02       4.530846083035e+00 
       2.244956374803e-02       4.519438927060e+00 
       2.257838546090e-02       4.507907726544e+00 
       2.270731539105e-02       4.496249435422e+00 
       2.283635579024e-02       4.484462629947e+00 
       2.296550896486e-02       4.472562591342e+00 
       2.309477727734e-02       4.460537134743e+00 
       2.322416314755e-02       4.448392535927e+00 
       2.335366905427e-02       4.436144020293e+00 
       2.348329753672e-02       4.423778911594e+00 
       2.361305119611e-02       4.411309406023e+00 
       2.374293269725e-02       4.398732583011e+00 
       2.387294477028e-02       4.386054178302e+00 
       2.400309021230e-02       4.373273731882e+00 
       2.413337188923e-02       4.360397217574e+00 
       2.426379273761e-02       4.347428251645e+00 
       2.439435576651e-02       4.334366142943e+00 
       2.452506405949e-02       4.321214329696e+00 
       2.465592077667e-02       4.307975084965e+00 
       2.478692915676e-02       4.294651774649e+00 
       2.491809251927e-02       4.281244159962e+00 
       2.504941426679e-02       4.267757982029e+00 
       2.518089788722e-02       4.254195523544e+00 
       2.531254695627e-02       4.240563561650e+00 
       2.544436513988e-02       4.226845828410e+00 
       2.557635619681e-02       4.213065064565e+00 
       2.570852398133e-02       4.199214077709e+00 
       2.584087244594e-02       4.185295896678e+00 
       2.597340564424e-02       4.171318320047e+00 
       2.610612773389e-02       4.157277214350e+00 
       2.623904297966e-02       4.143172701280e+00 
       2.637215575665e-02       4.129014174272e+00 
       2.650547055353e-02       4.114799157869e+00 
       2.663899197597e-02       4.100530605831e+00 
       2.677272475021e-02       4.086211890525e+00 
       2.690667372668e-02       4.071842322815e+00 
       2.704084388387e-02       4.057426080124e+00 
       2.717524033223e-02       4.042962400827e+00 
       2.730986831833e-02       4.028456710919e+00 
       2.744473322907e-02       4.013908082817e+00 
       2.757984059617e-02       3.999320610721e+00 
       2.771519610072e-02       3.984692932906e+00 
       2.785080557800e-02       3.970029267146e+00 
       2.798667502244e-02       3.955330835942e+00 
       2.812281059279e-02       3.940599629793e+00 
       2.825921861753e-02       3.925836299953e+00 
       2.839590560043e-02       3.911042887515e+00 
       2.853287822642e-02       3.896221407923e+00 
       2.867014336763e-02       3.881372979926e+00 
       2.880770808975e-02       3.866499592913e+00 
       2.894557965859e-02       3.851602386656e+00 
       2.908376554696e-02       3.836682771174e+00 
       2.922227344183e-02       3.821743361564e+00 
       2.936111125182e-02       3.806784262267e+00 
       2.950028711498e-02       3.791805172432e+00 
       2.963980940692e-02       3.776811381883e+00 
       2.977968674934e-02       3.761801743453e+00 
       2.991992801888e-02       3.746778324532e+00 
       3.006054235642e-02       3.731743403649e+00 
       3.020153917674e-02       3.716693999797e+00 
       3.034292817872e-02       3.701636996587e+00 
       3.048471935591e-02       3.686569639364e+00 
       3.062692300766e-02       3.671496599260e+00 
       3.076954975073e-02       3.656414077555e+00 
       3.091261053153e-02       3.641328501204e+00 
       3.105611663883e-02       3.626234475308e+00 
       3.120007971717e-02       3.611138689160e+00 
       3.134451178094e-02       3.596041602296e+00 
       3.148942522908e-02       3.580941685991e+00 
       3.163483286058e-02       3.565840371318e+00 
       3.178074789075e-02       3.550740241259e+00 
       3.192718396829e-02       3.535640519004e+00 
       3.207415519325e-02       3.520544434649e+00 
       3.222167613596e-02       3.505449491899e+00 
       3.236976185693e-02       3.490356736539e+00 
       3.251842792776e-02       3.475271289365e+00 
       3.266769045326e-02       3.460188941885e+00 
       3.281756609471e-02       3.445113605141e+00 
       3.296807209441e-02       3.430043740047e+00 
       3.311922630162e-02       3.414981726753e+00 
       3.327104719986e-02       3.399924911286e+00 
       3.342355393590e-02       3.384877520812e+00 
       3.357676635028e-02       3.369839840163e+00 
       3.373070500968e-02       3.354808701748e+00 
       3.388539124115e-02       3.339788184469e+00 
       3.404084716838e-02       3.324776576904e+00 
       3.419709575014e-02       3.309777337255e+00 
       3.435416082110e-02       3.294787568183e+00 
       3.451206713503e-02       3.279809894234e+00 
       3.467084041087e-02       3.264843097641e+00 
       3.483050738153e-02       3.249885782756e+00 
       3.499109584590e-02       3.234940669765e+00 
       3.515263472420e-02       3.220009806713e+00 
       3.531515411689e-02       3.205089103014e+00 
       3.547868536756e-02       3.190181204547e+00 
       3.564326112997e-02       3.175283580542e+00 
       3.580891543966e-02       3.160399109474e+00 
       3.597568379052e-02       3.145527973245e+00 
       3.614360321665e-02       3.130667665918e+00 
       3.631271238005e-02       3.115817978989e+00 
       3.648305166451e-02       3.100981858479e+00 
       3.665466327647e-02       3.086155795199e+00 
       3.682759135313e-02       3.071343175458e+00 
       3.700188207881e-02       3.056538941518e+00 
       3.717758380999e-02       3.041745758956e+00 
       3.735474721006e-02       3.026962192684e+00 
       3.753342539455e-02       3.012190735150e+00 
       3.771367408789e-02       2.997425321647e+00 
       3.789555179276e-02       2.982670000829e+00 
       3.807911997330e-02       2.967922255508e+00 
       3.826444325354e-02       2.953181898157e+00 
       3.845158963247e-02       2.938445888939e+00 
       3.864063071773e-02       2.923717512545e+00 
       3.883164197941e-02       2.908995438434e+00 
       3.902470302655e-02       2.894274353799e+00 
       3.921989790844e-02       2.879557720251e+00 
       3.941731544346e-02       2.864841301285e+00 
       3.961704957874e-02       2.850124904701e+00 
       3.981919978381e-02       2.835410297427e+00 
       4.002387148228e-02       2.820690487177e+00 
       4.023117652610e-02       2.805969046190e+00 
       4.044123371716e-02       2.791241351272e+00 
       4.065416938230e-02       2.776506785844e+00 
       4.087011800810e-02       2.761764771124e+00 
       4.108922294299e-02       2.747011611116e+00 
       4.131163717545e-02       2.732246053913e+00 
       4.153752419801e-02       2.717464353670e+00 
       4.176705896879e-02       2.702667274705e+00 
       4.200042898355e-02       2.687849095961e+00 
       4.223783547389e-02       2.673007691728e+00 
       4.247949474925e-02       2.658145227457e+00 
       4.272563970381e-02       2.643249874132e+00 
       4.297652151252e-02       2.628325288070e+00 
       4.323241154501e-02       2.613365130950e+00 
       4.349360353122e-02       2.598367260232e+00 
       4.376041601845e-02       2.583325851867e+00 
       4.403319516735e-02       2.568236736078e+00 
       4.431231794305e-02       2.553095919746e+00 
       4.459819576870e-02       2.537897641571e+00 
       4.489127872208e-02       2.522640698753e+00 
       4.519206037240e-02       2.507311020350e+00 
       4.550108337449e-02       2.491903291733e+00 
       4.581894596305e-02       2.476417702429e+00 
       4.614630952020e-02       2.460840229101e+00 
       4.648390742907e-02       2.445159034229e+00 
       4.683255547441e-02       2.429370895591e+00 
       4.719316411280e-02       2.413468598185e+00 
       4.756675301229e-02       2.397435659646e+00 
       4.795446835950e-02       2.381261927257e+00 
       4.835760355679e-02       2.364944914948e+00 
       4.877762409092e-02       2.348423368447e+00 
       4.921619755703e-02       2.331692278408e+00 
       4.967523007970e-02       2.314744122705e+00 
       5.015691069999e-02       2.297538418506e+00 
       5.066376571099e-02       2.280054804153e+00 
       5.119872543759e-02       2.262245449131e+00 
       5.176520658204e-02       2.244070703925e+00 
       5.236721398511e-02       2.225473991752e+00 
       5.300946643626e-02       2.206380684758e+00 
       5.369755186298e-02       2.186707314956e+00 
       5.443811750858e-02       2.166342660613e+00 
       5.523909986108e-02       2.145142821956e+00 
       5.610999569786e-02       2.122922311233e+00 
       5.706216693470e-02       2.099433057664e+00 
       5.810915311482e-02       2.074342941949e+00 
