# dimensionless total [l(l+1)/2pi] C_l's
# for l=2 to 3000, i.e. number of multipoles equal to 2999
#
# -> if you prefer output in CAMB/HealPix/LensPix units/order, set 'format' to 'camb' in input file
# -> if you don't want to see such a header, set 'headers' to 'no' in input file
# -> for CMB lensing (phi), these are C_l^phi-phi for the lensing potential.
#    Remember the conversion factors:
#    C_l^dd (deflection) = l(l+1) C_l^phi-phi
#    C_l^gg (shear/convergence) = 1/4 (l(l+1))^2 C_l^phi-phi
#
# 1:l     2:TT                     3:EE                     4:TE                     5:BB                     6:phiphi                 7:TPhi                   8:Ephi               
    2       1.513632218017e-10       4.793919263652e-15       3.799554181437e-13       0.000000000000e+00       8.308900551433e-09       5.059094117512e-10      -2.012650403383e-12 
    3       1.417602101264e-10       6.054149366526e-15       4.281331635618e-13       0.000000000000e+00       5.129784860640e-09       3.573050235241e-10      -1.512211810662e-12 
    4       1.331006891735e-10       5.148201728823e-15       3.998152546665e-13       0.000000000000e+00       3.573399119904e-09       2.695788003883e-10      -9.767879447382e-13 
    5       1.266632455025e-10       3.372191952741e-15       3.391740649870e-13       0.000000000000e+00       2.668733887238e-09       2.123124798728e-10      -5.310262023696e-13 
    6       1.222124480885e-10       1.854974208570e-15       2.715862747065e-13       0.000000000000e+00       2.084679621117e-09       1.723344358310e-10      -2.072577161672e-13 
    7       1.192614281692e-10       9.970892418293e-16       2.117217425424e-13       0.000000000000e+00       1.680632406584e-09       1.430915571568e-10      -5.088506841824e-15 
    8       1.174514040641e-10       6.484076179092e-16       1.659065778558e-13       0.000000000000e+00       1.387196956144e-09       1.209769252562e-10       9.390925950982e-14 
    9       1.164838218123e-10       5.208327192165e-16       1.354177007133e-13       0.000000000000e+00       1.166706070492e-09       1.038398185357e-10       1.170784347571e-13 
   10       1.161112300548e-10       4.388686892762e-16       1.186536347097e-13       0.000000000000e+00       9.966326017512e-10       9.028015018220e-11       9.395857929966e-14 
   11       1.162372933063e-10       3.648777679393e-16       1.125826853243e-13       0.000000000000e+00       8.432440806201e-10       7.968568456630e-11       5.145216675268e-14 
   12       1.167161503039e-10       3.171908915771e-16       1.137789178222e-13       0.000000000000e+00       7.367156077007e-10       7.043613189404e-11       8.505975753324e-15 
   13       1.174780742279e-10       3.043648274064e-16       1.192685840602e-13       0.000000000000e+00       6.492654236297e-10       6.289358631235e-11      -2.257325918170e-14 
   14       1.184501544708e-10       3.151739051445e-16       1.268681247924e-13       0.000000000000e+00       5.765065054802e-10       5.630727325013e-11      -3.807907707291e-14 
   15       1.196300179497e-10       3.376009519909e-16       1.351591702720e-13       0.000000000000e+00       5.152627764380e-10       5.077072212898e-11      -3.911709500907e-14 
   16       1.209580640591e-10       3.710502819162e-16       1.435377574729e-13       0.000000000000e+00       4.631921930349e-10       4.602102476163e-11      -3.058988199778e-14 
   17       1.224240056235e-10       4.221507702685e-16       1.519055721107e-13       0.000000000000e+00       4.185254776176e-10       4.189304577742e-11      -1.835701129866e-14 
   18       1.239798180875e-10       4.958390673908e-16       1.605031637409e-13       0.000000000000e+00       3.797593112915e-10       3.827069696158e-11      -7.624499826673e-15 
   19       1.256370210874e-10       5.918687005444e-16       1.695712833543e-13       0.000000000000e+00       3.462753139024e-10       3.511430104392e-11      -8.584003371378e-16 
   20       1.273743969701e-10       7.076932365398e-16       1.792900550681e-13       0.000000000000e+00       3.167858656355e-10       3.233005904338e-11       6.145663492312e-16 
   21       1.291981902440e-10       8.427085272315e-16       1.896130200653e-13       0.000000000000e+00       2.908277741163e-10       2.986655698730e-11      -2.207629430553e-15 
   22       1.310899877042e-10       9.965660859749e-16       2.003183944709e-13       0.000000000000e+00       2.677791794102e-10       2.764725752069e-11      -7.115519247559e-15 
   23       1.330478093318e-10       1.169033018569e-15       2.109667689413e-13       0.000000000000e+00       2.473232262385e-10       2.564950108378e-11      -1.224083505459e-14 
   24       1.350545827075e-10       1.359832122248e-15       2.210151277117e-13       0.000000000000e+00       2.289873926688e-10       2.384564176980e-11      -1.575945806945e-14 
   25       1.371211814453e-10       1.569508261142e-15       2.301926363330e-13       0.000000000000e+00       2.125559555398e-10       2.222818534919e-11      -1.704041438787e-14 
   26       1.392482061191e-10       1.799071676242e-15       2.383237351842e-13       0.000000000000e+00       1.977313667485e-10       2.077748851940e-11      -1.603158623083e-14 
   27       1.414214771617e-10       2.050579711026e-15       2.453408910157e-13       0.000000000000e+00       1.843356758546e-10       1.946520033888e-11      -1.354538509134e-14 
   28       1.436141692068e-10       2.326404569555e-15       2.512387220689e-13       0.000000000000e+00       1.721378530189e-10       1.825330750619e-11      -1.073994629812e-14 
   29       1.458364502179e-10       2.627992596066e-15       2.560826904794e-13       0.000000000000e+00       1.610755353748e-10       1.714064502428e-11      -8.251045125582e-15 
   30       1.480993294313e-10       2.956487102786e-15       2.599960745336e-13       0.000000000000e+00       1.510298861040e-10       1.612901059451e-11      -6.645337908129e-15 
   31       1.504028008380e-10       3.312961232928e-15       2.631039665475e-13       0.000000000000e+00       1.417959438388e-10       1.521062931176e-11      -6.413584957489e-15 
   32       1.527492558815e-10       3.698334273760e-15       2.653507705103e-13       0.000000000000e+00       1.333259457475e-10       1.437508820523e-11      -7.275213544312e-15 
   33       1.551322481975e-10       4.113409475308e-15       2.666131262058e-13       0.000000000000e+00       1.255599138885e-10       1.360303374359e-11      -8.596681193161e-15 
   34       1.575385069079e-10       4.558943382105e-15       2.667498671829e-13       0.000000000000e+00       1.183890857084e-10       1.287148214980e-11      -9.698372885049e-15 
   35       1.599724788434e-10       5.035843316823e-15       2.656187044160e-13       0.000000000000e+00       1.117766990708e-10       1.218234083497e-11      -1.034715904149e-14 
   36       1.624386074928e-10       5.545030831382e-15       2.630626677775e-13       0.000000000000e+00       1.056696534190e-10       1.154303762180e-11      -1.042954245757e-14 
   37       1.649363447274e-10       6.087372804021e-15       2.589381494451e-13       0.000000000000e+00       9.998841122720e-11       1.095785092103e-11      -9.879792371388e-15 
   38       1.674681542247e-10       6.663634974397e-15       2.532312753848e-13       0.000000000000e+00       9.471824687106e-11       1.042489464591e-11      -8.879718480590e-15 
   39       1.700329224099e-10       7.274506112841e-15       2.459806756325e-13       0.000000000000e+00       8.984239523908e-11       9.937580961602e-12      -7.729742485257e-15 
   40       1.726229779339e-10       7.920604722667e-15       2.372481297141e-13       0.000000000000e+00       8.531429654708e-11       9.484975722455e-12      -6.801253613649e-15 
   41       1.752284248568e-10       8.602521953326e-15       2.270956073719e-13       0.000000000000e+00       8.107380370383e-11       9.055096709499e-12      -6.434234032025e-15 
   42       1.778534125464e-10       9.320977905715e-15       2.155040313900e-13       0.000000000000e+00       7.710839624215e-11       8.646947358182e-12      -6.579166149949e-15 
   43       1.805040602293e-10       1.007670867243e-14       2.024304291948e-13       0.000000000000e+00       7.340752005882e-11       8.261806880364e-12      -7.046177232072e-15 
   44       1.831836201346e-10       1.087042214059e-14       1.878297439194e-13       0.000000000000e+00       6.994421976556e-11       7.899817709819e-12      -7.599112972789e-15 
   45       1.858931753785e-10       1.170275986944e-14       1.716553634432e-13       0.000000000000e+00       6.668475676992e-11       7.560262268086e-12      -8.011565490842e-15 
   46       1.886347184297e-10       1.257417204347e-14       1.538615475525e-13       0.000000000000e+00       6.362396850885e-11       7.242731292033e-12      -8.261581873385e-15 
   47       1.914084616970e-10       1.348500303369e-14       1.344012561645e-13       0.000000000000e+00       6.075825976222e-11       6.946132007616e-12      -8.390365334634e-15 
   48       1.942116596574e-10       1.443552176656e-14       1.132251827571e-13       0.000000000000e+00       5.807493822561e-11       6.668262397781e-12      -8.449031128632e-15 
   49       1.970383547054e-10       1.542591836421e-14       9.028152431431e-14       0.000000000000e+00       5.555153824180e-11       6.405731416787e-12      -8.499173700657e-15 
   50       1.998821372051e-10       1.645633203771e-14       6.552210017066e-14       0.000000000000e+00       5.316257945616e-11       6.154944389983e-12      -8.599426874443e-15 
   51       2.027458984990e-10       1.752695148735e-14       3.892320030062e-14       0.000000000000e+00       5.090357449586e-11       5.915559643885e-12      -8.759527882469e-15 
   52       2.056342859266e-10       1.863793594733e-14       1.046999839800e-14       0.000000000000e+00       4.877236893211e-11       5.687832224821e-12      -8.974764891930e-15 
   53       2.085508103579e-10       1.978938447035e-14      -1.984923533257e-14       0.000000000000e+00       4.676195726628e-11       5.471601762675e-12      -9.238804369498e-15 
   54       2.114977338862e-10       2.098133403856e-14      -5.204306545864e-14       0.000000000000e+00       4.486015654010e-11       5.266262811584e-12      -9.543599081473e-15 
   55       2.144763738463e-10       2.221377219526e-14      -8.611742505799e-14       0.000000000000e+00       4.305331781525e-11       5.071025214244e-12      -9.878946563787e-15 
   56       2.174883605921e-10       2.348668294221e-14      -1.220775296267e-13       0.000000000000e+00       4.133928804480e-11       4.885838883964e-12      -1.023124685023e-14 
   57       2.205344954640e-10       2.480000893541e-14      -1.599263182638e-13       0.000000000000e+00       3.971709651151e-11       4.710646807722e-12      -1.058427499228e-14 
   58       2.236142678455e-10       2.615363666876e-14      -1.996638486123e-13       0.000000000000e+00       3.818303368544e-11       4.545097190514e-12      -1.091940023187e-14 
   59       2.267257590773e-10       2.754739515086e-14      -2.412872516148e-13       0.000000000000e+00       3.673048215374e-11       4.388525095665e-12      -1.121548038349e-14 
   60       2.298655463707e-10       2.898105458164e-14      -2.847906862686e-13       0.000000000000e+00       3.534974755041e-11       4.239934085145e-12      -1.144875621627e-14 
   61       2.330301611561e-10       3.045427426153e-14      -3.301661453084e-13       0.000000000000e+00       3.403074688541e-11       4.098268732500e-12      -1.159843093420e-14 
   62       2.362210640202e-10       3.196643564955e-14      -3.774061859382e-13       0.000000000000e+00       3.277216115419e-11       3.963345175450e-12      -1.166511102594e-14 
   63       2.394406210222e-10       3.351676931454e-14      -4.265017345433e-13       0.000000000000e+00       3.157404646102e-11       3.835097806801e-12      -1.165633607847e-14 
   64       2.426906019582e-10       3.510439952014e-14      -4.774412719659e-13       0.000000000000e+00       3.043508104990e-11       3.713297883465e-12      -1.158133221904e-14 
   65       2.459721335961e-10       3.672834129064e-14      -5.302108152598e-13       0.000000000000e+00       2.935248689741e-11       3.597544395945e-12      -1.145108688111e-14 
   66       2.492856529104e-10       3.838749747688e-14      -5.847938994446e-13       0.000000000000e+00       2.832195130561e-11       3.487254937817e-12      -1.127842357035e-14 
   67       2.526308603171e-10       4.008065582211e-14      -6.411715592606e-13       0.000000000000e+00       2.733754849496e-11       3.381656575216e-12      -1.107807663055e-14 
   68       2.560072619850e-10       4.180659754150e-14      -6.993223084732e-13       0.000000000000e+00       2.639331979271e-11       3.279988763176e-12      -1.086414631302e-14 
   69       2.594160289065e-10       4.356445516716e-14      -7.592221137014e-13       0.000000000000e+00       2.548856127006e-11       3.182180249072e-12      -1.064169805375e-14 
   70       2.628584322429e-10       4.535342227413e-14      -8.208443824849e-13       0.000000000000e+00       2.462347158834e-11       3.088293555375e-12      -1.041358748044e-14 
   71       2.663352564476e-10       4.717264830166e-14      -8.841599472851e-13       0.000000000000e+00       2.379755285919e-11       2.998321427650e-12      -1.018293712530e-14 
   72       2.698467675664e-10       4.902123847116e-14      -9.491370471768e-13       0.000000000000e+00       2.300957465681e-11       2.912183127239e-12      -9.953144191128e-15 
   73       2.733926815385e-10       5.089825370402e-14      -1.015741309540e-12       0.000000000000e+00       2.225753803013e-11       2.829720723929e-12      -9.727888317319e-15 
   74       2.769721324968e-10       5.280271053958e-14      -1.083935731752e-12       0.000000000000e+00       2.153863951507e-11       2.750695388634e-12      -9.511139345926e-15 
   75       2.805836410691e-10       5.473358105297e-14      -1.153680662880e-12       0.000000000000e+00       2.084923514675e-11       2.674783686072e-12      -9.307165087707e-15 
   76       2.842257695332e-10       5.668974735509e-14      -1.224935329961e-12       0.000000000000e+00       2.018574353195e-11       2.601661779653e-12      -9.119768117099e-15 
   77       2.878992952813e-10       5.866985569524e-14      -1.297662778650e-12       0.000000000000e+00       1.954762473899e-11       2.531283968644e-12      -8.949818315383e-15 
   78       2.916053779479e-10       6.067243548057e-14      -1.371825804449e-12       0.000000000000e+00       1.893488176405e-11       2.463648444124e-12      -8.797282393719e-15 
   79       2.953448903859e-10       6.269594133681e-14      -1.447385501188e-12       0.000000000000e+00       1.834715320075e-11       2.398712008982e-12      -8.661947033918e-15 
   80       2.991184010524e-10       6.473875209474e-14      -1.524301274394e-12       0.000000000000e+00       1.778369650850e-11       2.336388173302e-12      -8.543410845095e-15 
   81       3.029261563936e-10       6.679916977678e-14      -1.602530854653e-12       0.000000000000e+00       1.724337128100e-11       2.276545249753e-12      -8.441076320334e-15 
   82       3.067680632302e-10       6.887541858359e-14      -1.682030310977e-12       0.000000000000e+00       1.672462251457e-11       2.219004448972e-12      -8.354141793343e-15 
   83       3.106436711427e-10       7.096564388057e-14      -1.762754064168e-12       0.000000000000e+00       1.622546387660e-11       2.163537974960e-12      -8.281593395115e-15 
   84       3.145524681685e-10       7.306797225121e-14      -1.844654286197e-12       0.000000000000e+00       1.574395948591e-11       2.109924055651e-12      -8.222165740044e-15 
   85       3.184948628022e-10       7.518070531574e-14      -1.927678954657e-12       0.000000000000e+00       1.527979767160e-11       2.058126688675e-12      -8.174234114675e-15 
   86       3.224713332511e-10       7.730215633478e-14      -2.011773498786e-12       0.000000000000e+00       1.483294864661e-11       2.008142340172e-12      -8.135889585965e-15 
   87       3.264821164309e-10       7.943059201213e-14      -2.096881387774e-12       0.000000000000e+00       1.440318096220e-11       1.959944725235e-12      -8.104960240134e-15 
   88       3.305271956165e-10       8.156423250767e-14      -2.182944133811e-12       0.000000000000e+00       1.399005315477e-11       1.913483860198e-12      -8.079002613769e-15 
   89       3.346062880927e-10       8.370125145021e-14      -2.269901295133e-12       0.000000000000e+00       1.359290539262e-11       1.868685114911e-12      -8.055293124926e-15 
   90       3.387188328059e-10       8.583977595045e-14      -2.357690479066e-12       0.000000000000e+00       1.321085112267e-11       1.825448265024e-12      -8.030819504233e-15 
   91       3.428639780142e-10       8.797788661381e-14      -2.446247345076e-12       0.000000000000e+00       1.284276871727e-11       1.783646544271e-12      -8.002272225997e-15 
   92       3.470405689392e-10       9.011361755335e-14      -2.535505607810e-12       0.000000000000e+00       1.248729312091e-11       1.743125696748e-12      -7.966035939305e-15 
   93       3.512474951200e-10       9.224498934298e-14      -2.625398248015e-12       0.000000000000e+00       1.214313909973e-11       1.703742350523e-12      -7.919044179618e-15 
   94       3.554848190604e-10       9.437011351841e-14      -2.715861347001e-12       0.000000000000e+00       1.181014474618e-11       1.665487798862e-12      -7.861509162726e-15 
   95       3.597527952881e-10       9.648710389010e-14      -2.806830837199e-12       0.000000000000e+00       1.148837020347e-11       1.628381170095e-12      -7.794588619330e-15 
   96       3.640515184642e-10       9.859404546221e-14      -2.898241365033e-12       0.000000000000e+00       1.117777629641e-11       1.592431362581e-12      -7.719562333605e-15 
   97       3.683809159716e-10       1.006889948977e-13      -2.990026310551e-12       0.000000000000e+00       1.087822072999e-11       1.557636636748e-12      -7.637835424414e-15 
   98       3.727407405036e-10       1.027699809832e-13      -3.082117807050e-12       0.000000000000e+00       1.058945428806e-11       1.523984207129e-12      -7.550941626516e-15 
   99       3.771305626524e-10       1.048350050943e-13      -3.174446760699e-12       0.000000000000e+00       1.031111703185e-11       1.491449834404e-12      -7.460546571787e-15 
  100       3.815497634979e-10       1.068820416607e-13      -3.266942870169e-12       0.000000000000e+00       1.004273449868e-11       1.459997417438e-12      -7.368451070427e-15 
  101       3.859975271961e-10       1.089090386307e-13      -3.359534646259e-12       0.000000000000e+00       9.783713900536e-12       1.429578585318e-12      -7.276594392176e-15 
  102       3.904728335678e-10       1.109139179371e-13      -3.452149431517e-12       0.000000000000e+00       9.533340322689e-12       1.400132289398e-12      -7.187057547528e-15 
  103       3.949744506870e-10       1.128945759615e-13      -3.544713419873e-12       0.000000000000e+00       9.290772922315e-12       1.371584395328e-12      -7.102066568944e-15 
  104       3.995011895242e-10       1.148489350257e-13      -3.637152228965e-12       0.000000000000e+00       9.055235169525e-12       1.343864603045e-12      -7.023508276903e-15 
  105       4.040527230141e-10       1.167751047852e-13      -3.729392662912e-12       0.000000000000e+00       8.826623025914e-12       1.316960688465e-12      -6.951396013311e-15 
  106       4.086288643298e-10       1.186712436057e-13      -3.821361225362e-12       0.000000000000e+00       8.604972217662e-12       1.290870862602e-12      -6.885201803316e-15 
  107       4.132293102322e-10       1.205355104980e-13      -3.912983613445e-12       0.000000000000e+00       8.390269880631e-12       1.265586883026e-12      -6.824323311659e-15 
