# dimensionless total lensed [l(l+1)/2pi] C_l's
# for l=2 to 2500, i.e. number of multipoles equal to 2499
#
# -> if you prefer output in CAMB/HealPix/LensPix units/order, set 'format' to 'camb' in input file
# -> if you don't want to see such a header, set 'headers' to 'no' in input file
# -> for CMB lensing (phi), these are C_l^phi-phi for the lensing potential.
#    Remember the conversion factors:
#    C_l^dd (deflection) = l(l+1) C_l^phi-phi
#    C_l^gg (shear/convergence) = 1/4 (l(l+1))^2 C_l^phi-phi
#
# 1:l     2:TT                     3:EE                     4:TE                     5:BB                     6:phiphi                 7:TPhi                   8:Ephi               
    2       1.513644124872e-10       4.794166928332e-15       3.799571846069e-13       2.253204056500e-19       8.308939195669e-09       5.059117694222e-10      -2.012659784934e-12 
    3       1.417618390515e-10       6.054628326537e-15       4.281351403562e-13       4.507407314725e-19       5.129808711973e-09       3.573066860995e-10      -1.512218859922e-12 
    4       1.331029183768e-10       5.148977182887e-15       3.998170643949e-13       7.514544995598e-19       3.573415698778e-09       2.695800557458e-10      -9.767924983575e-13 
    5       1.266662403283e-10       3.373335269747e-15       3.391755238380e-13       1.127589161167e-18       2.668746225867e-09       2.123134709025e-10      -5.310286780217e-13 
    6       1.222163685012e-10       1.856562176260e-15       2.715873008753e-13       1.579299205468e-18       2.084689234965e-09       1.723352385691e-10      -2.072586824344e-13 
    7       1.192664280835e-10       9.992007010580e-16       2.117223038116e-13       2.106763165777e-18       1.680640160719e-09       1.430922202338e-10      -5.088530604691e-15 
    8       1.174576327687e-10       6.511209191071e-16       1.659066506956e-13       2.710180239297e-18       1.387203371926e-09       1.209774870098e-10       9.390969728538e-14 
    9       1.164914216139e-10       5.242250985886e-16       1.354172449181e-13       3.389766623248e-18       1.166711480321e-09       1.038403045377e-10       1.170789805240e-13 
   10       1.161203371654e-10       4.430168097095e-16       1.186525778873e-13       4.145751677303e-18       9.966372288840e-10       9.028057180247e-11       9.395901721075e-14 
   11       1.162480364024e-10       3.698583734578e-16       1.125809153242e-13       4.978374025424e-18       8.432479976240e-10       7.968605227451e-11       5.145240654602e-14 
   12       1.167286580789e-10       3.230810748996e-16       1.137762793263e-13       5.887877709325e-18       7.367190292355e-10       7.043645692122e-11       8.506015549675e-15 
   13       1.174924648967e-10       3.112419859246e-16       1.192648806120e-13       6.874508501014e-18       6.492684384719e-10       6.289388128217e-11      -2.257336416180e-14 
   14       1.184665464730e-10       3.231156442985e-16       1.268631213378e-13       7.938510473331e-18       5.765091819874e-10       5.630753831417e-11      -3.807925454609e-14 
   15       1.196485153814e-10       3.466850713271e-16       1.351525974936e-13       9.080122915504e-18       5.152651681866e-10       5.077095615559e-11      -3.911727762365e-14 
   16       1.209787807891e-10       3.813548125367e-16       1.435293147750e-13       1.029957766596e-17       4.631943427018e-10       4.602123440957e-11      -3.059002489004e-14 
   17       1.224470392585e-10       4.337539854958e-16       1.518949313573e-13       1.159709691755e-17       4.185274196462e-10       4.189324121373e-11      -1.835709684657e-14 
   18       1.240052692036e-10       5.088194473787e-16       1.604899704213e-13       1.297289132301e-17       3.797610731308e-10       3.827087753716e-11      -7.624534829237e-15 
   19       1.256649887297e-10       6.063048728821e-16       1.695551576737e-13       1.442715987639e-17       3.462769201203e-10       3.511446474537e-11      -8.584036106699e-16 
   20       1.274049744460e-10       7.236639265173e-16       1.792705929525e-13       1.596008696608e-17       3.167873348120e-10       3.233020701882e-11       6.145692706885e-16 
   21       1.292314693044e-10       8.602925239132e-16       1.895897930356e-13       1.757184544254e-17       2.908291226754e-10       2.986669324578e-11      -2.207640618449e-15 
   22       1.311260597527e-10       1.015842195288e-15       2.002909499627e-13       1.926259336852e-17       2.677804208827e-10       2.764738753257e-11      -7.115553571507e-15 
   23       1.330867627792e-10       1.190080012237e-15       2.109346298158e-13       2.103247861468e-17       2.473243726804e-10       2.564962444229e-11      -1.224089256249e-14 
   24       1.350965026181e-10       1.382728681715e-15       2.209777931404e-13       2.288163555620e-17       2.289884539387e-10       2.384575145661e-11      -1.575953053795e-14 
   25       1.371661532549e-10       1.594332926894e-15       2.301495854692e-13       2.481019144444e-17       2.125569404921e-10       2.222828220176e-11      -1.704049208496e-14 
   26       1.392963164525e-10       1.825902790874e-15       2.382744294016e-13       2.681826242176e-17       1.977322828539e-10       2.077758384751e-11      -1.603166061998e-14 
   27       1.414728099006e-10       2.079495372771e-15       2.452847744815e-13       2.890595956611e-17       1.843365297558e-10       1.946529853348e-11      -1.354544990831e-14 
   28       1.436688044535e-10       2.357482575893e-15       2.511752237279e-13       3.107338617868e-17       1.721386502844e-10       1.825340144137e-11      -1.073999839876e-14 
   29       1.458944668003e-10       2.661310393845e-15       2.560112283522e-13       3.332064726432e-17       1.610762812825e-10       1.714072805085e-11      -8.251084366676e-15 
   30       1.481608058466e-10       2.992121726393e-15       2.599160591702e-13       3.564784185488e-17       1.510305853791e-10       1.612908112870e-11      -6.645367716631e-15 
   31       1.504678153053e-10       3.350989245239e-15       2.630148036002e-13       3.805506296933e-17       1.417966002540e-10       1.521069106324e-11      -6.413612117420e-15 
   32       1.528178855393e-10       3.738831737820e-15       2.652518612007e-13       4.054240902920e-17       1.333265628529e-10       1.437514574622e-11      -7.275244153632e-15 
   33       1.552045688096e-10       4.156451902863e-15       2.665038693801e-13       4.310997671355e-17       1.255604949553e-10       1.360309099624e-11      -8.596718955694e-15 
   34       1.576145923947e-10       4.604605680423e-15       2.666296626354e-13       4.575785948795e-17       1.183896335021e-10       1.287154199133e-11      -9.698418626786e-15 
   35       1.600523995050e-10       5.084199764484e-15       2.654869582216e-13       4.848615246812e-17       1.117772161861e-10       1.218240450900e-11      -1.034721125922e-14 
   36       1.625224290005e-10       5.596155032765e-15       2.629187966328e-13       5.129494956028e-17       1.056701422034e-10       1.154310421916e-11      -1.042959712976e-14 
   37       1.650241280422e-10       6.141337639569e-15       2.587815853368e-13       5.418434126682e-17       9.998887365888e-11       1.095791746758e-11      -9.879843393149e-15 
   38       1.675599577172e-10       6.720512566865e-15       2.530614725121e-13       5.715441082498e-17       9.471868485948e-11       1.042495821738e-11      -8.879761282199e-15 
   39       1.701288024688e-10       7.334367781176e-15       2.457971162168e-13       6.020523704455e-17       8.984281061564e-11       9.937639438153e-12      -7.729775552364e-15 
   40       1.727229889822e-10       7.983520930555e-15       2.370503295297e-13       6.333689548904e-17       8.531469092681e-11       9.485028020580e-12      -6.801279215314e-15 
   41       1.753326190384e-10       8.668562253911e-15       2.268831214173e-13       6.654945471764e-17       8.107417842241e-11       9.055142827850e-12      -6.434257851605e-15 
   42       1.779618382991e-10       9.390210875428e-15       2.152764594294e-13       6.984296326674e-17       7.710875257695e-11       8.646987754726e-12      -6.579193082873e-15 
   43       1.806167616044e-10       1.014920185074e-14       2.021874218140e-13       7.321745862159e-17       7.340785923805e-11       8.261842326843e-12      -7.046209847429e-15 
   44       1.833006363862e-10       1.094624197141e-14       1.875710089338e-13       7.667297057219e-17       6.994454289223e-11       7.899849330862e-12      -7.599150979586e-15 
   45       1.860145411801e-10       1.178197162166e-14       1.713806725100e-13       8.020951667272e-17       6.668506479035e-11       7.560291474596e-12      -8.011605948665e-15 
   46       1.887604662539e-10       1.265683966402e-14       1.535707428893e-13       8.382708736771e-17       6.362426234529e-11       7.242759355629e-12      -8.261621976971e-15 
   47       1.915386226353e-10       1.357118904609e-14       1.340942576144e-13       8.752565615457e-17       6.075854032009e-11       6.946159889611e-12      -8.390403339652e-15 
   48       1.943462636565e-10       1.452528718542e-14       1.129019951372e-13       9.130518318501e-17       5.807520635138e-11       6.668290671925e-12      -8.449066580338e-15 
   49       1.971774308148e-10       1.551932260744e-14       8.994224500970e-14       9.516561485692e-17       5.555179467762e-11       6.405760187517e-12      -8.499207675293e-15 
   50       2.000257136657e-10       1.655343281923e-14       6.516692476283e-14       9.910688340643e-17       5.316282482593e-11       6.154973309561e-12      -8.599461809457e-15 
   51       2.028940022733e-10       1.762780464994e-14       3.855242110307e-14       1.031289065000e-16       5.090380940258e-11       5.915588268182e-12      -8.759566012074e-15 
   52       2.057869426566e-10       1.874259533525e-14       1.008400858302e-14       1.072315868263e-16       4.877259396870e-11       5.687860114623e-12      -8.974807720793e-15 
   53       2.087080444852e-10       1.989790181500e-14      -2.024993542763e-14       1.114148116877e-16       4.676217299313e-11       5.471628490051e-12      -9.238852530244e-15 
   54       2.116595687772e-10       2.109375884108e-14      -5.245786188402e-14       1.156784525923e-16       4.486036346105e-11       5.266287966623e-12      -9.543652184987e-15 
   55       2.146428318430e-10       2.233015162730e-14      -8.654558565545e-14       1.200223745432e-16       4.305351637083e-11       5.071048430994e-12      -9.879003270181e-15 
   56       2.176594628153e-10       2.360706181322e-14      -1.225182058485e-13       1.244464675421e-16       4.133947866547e-11       4.885859928631e-12      -1.023130568248e-14 
   57       2.207102618099e-10       2.492442960464e-14      -1.603785419233e-13       1.289506221968e-16       3.971727962318e-11       4.710665620746e-12      -1.058433457908e-14 
   58       2.237947170551e-10       2.628213893544e-14      -2.001265267199e-13       1.335347206803e-16       3.818320969678e-11       4.545113912278e-12      -1.091945934044e-14 
   59       2.269109088071e-10       2.768001614212e-14      -2.417591611508e-13       1.381986367008e-16       3.673065144269e-11       4.388540093321e-12      -1.121553795401e-14 
   60       2.300554132641e-10       2.911782863832e-14      -2.852704688922e-13       1.429422354706e-16       3.534991044995e-11       4.239947980562e-12      -1.144881139806e-14 
   61       2.332247604668e-10       3.059523293198e-14      -3.306523048301e-13       1.477653909391e-16       3.403090368174e-11       4.098282357425e-12      -1.159848311224e-14 
   62       2.364204077691e-10       3.211160804088e-14      -3.778970949484e-13       1.526680420774e-16       3.277231212736e-11       3.963359286759e-12      -1.166515981214e-14 
   63       2.396447172922e-10       3.366618216318e-14      -4.269956338365e-13       1.576501492309e-16       3.157419189132e-11       3.835112989542e-12      -1.165638133325e-14 
   64       2.428994545961e-10       3.525807716045e-14      -4.779362673463e-13       1.627116784787e-16       3.043522121144e-11       3.713314521839e-12      -1.158137408477e-14 
   65       2.461857419018e-10       3.688630562485e-14      -5.307048743724e-13       1.678526021513e-16       2.935262205142e-11       3.597562643055e-12      -1.145112581688e-14 
   66       2.495040113124e-10       3.854976794635e-14      -5.852848486335e-13       1.730728993478e-16       2.832208169332e-11       3.487274684193e-12      -1.127846038809e-14 
   67       2.528539580353e-10       4.024724937989e-14      -6.416570804527e-13       1.783725564535e-16       2.733767433013e-11       3.381677416101e-12      -1.107811253241e-14 
   68       2.562350828092e-10       4.197752876703e-14      -6.997999362438e-13       1.837515753591e-16       2.639344126148e-11       3.280010037985e-12      -1.086418280551e-14 
   69       2.596485513803e-10       4.373973683811e-14      -7.596892328677e-13       1.892099988968e-16       2.548867855529e-11       3.182201317063e-12      -1.064173645980e-14 
   70       2.630956295015e-10       4.553306557650e-14      -8.212982253259e-13       1.947478915118e-16       2.462358487377e-11       3.088313880982e-12      -1.041362877405e-14 
   71       2.665770959230e-10       4.735666291207e-14      -8.845975906460e-13       2.003653327173e-16       2.379766232625e-11       2.998340597293e-12      -1.018298188177e-14 
   72       2.700932106837e-10       4.920963264394e-14      -9.495554096036e-13       2.060624178095e-16       2.300968048120e-11       2.912200866777e-12      -9.953192535449e-15 
   73       2.736436834014e-10       5.109103436335e-14      -1.016137148444e-12       2.118392585816e-16       2.225764037829e-11       2.829736916766e-12      -9.727939870644e-15 
   74       2.772276415642e-10       5.299988337641e-14      -1.084305640606e-12       2.176959840386e-16       2.153873854045e-11       2.750710094475e-12      -9.511193170224e-15 
   75       2.808435988210e-10       5.493515062693e-14      -1.154021068441e-12       2.236327411114e-16       2.084933098590e-11       2.674797160316e-12      -9.307219628514e-15 
   76       2.844901109635e-10       5.689571720104e-14      -1.225242490254e-12       2.296496857366e-16       2.018583630483e-11       2.601674444411e-12      -9.119821322491e-15 
   77       2.881679520678e-10       5.888022843379e-14      -1.297932783296e-12       2.357469526384e-16       1.954771456306e-11       2.531296226972e-12      -8.949868324782e-15 
   78       2.918782794172e-10       6.088721293438e-14      -1.372054573133e-12       2.419246813088e-16       1.893496875676e-11       2.463660623490e-12      -8.797327757862e-15 
   79       2.956219636929e-10       6.291512465182e-14      -1.447568781481e-12       2.481830256616e-16       1.834723747785e-11       2.398724350879e-12      -8.661986767723e-15 
   80       2.993995713665e-10       6.496234186647e-14      -1.524434639624e-12       2.545221545498e-16       1.778377818230e-11       2.336400822507e-12      -8.543444482311e-15 
   81       3.032113470925e-10       6.702716618147e-14      -1.602609701820e-12       2.609422522816e-16       1.724345045853e-11       2.276558243221e-12      -8.441103969971e-15 
   82       3.070571961009e-10       6.910782151423e-14      -1.682049858711e-12       2.674435191382e-16       1.672469929563e-11       2.219017704383e-12      -8.354164197887e-15 
   83       3.109366665895e-10       7.120245308783e-14      -1.762709350734e-12       2.740261718897e-16       1.622553835182e-11       2.163551278896e-12      -8.281611990523e-15 
   84       3.148492448259e-10       7.330918742002e-14      -1.844540172751e-12       2.806904412029e-16       1.574403173693e-11       2.109937082940e-12      -8.222182540505e-15 
   85       3.187953352308e-10       7.542632592562e-14      -1.927490145160e-12       2.874365622353e-16       1.527986777864e-11       2.058139121921e-12      -8.174251034363e-15 
   86       3.227754112448e-10       7.755218170939e-14      -2.011504546117e-12       2.942647834222e-16       1.483301668973e-11       2.008153905127e-12      -8.135908233300e-15 
   87       3.267897048953e-10       7.968502143860e-14      -2.096526695011e-12       3.011753699049e-16       1.440324702041e-11       1.959955196301e-12      -8.104981879589e-15 
   88       3.308381944446e-10       8.182306535962e-14      -2.182497955649e-12       3.081686039962e-16       1.399011730505e-11       1.913493066100e-12      -8.079028126479e-15 
   89       3.349205920381e-10       8.396448731460e-14      -2.269357739430e-12       3.152447856443e-16       1.359296770890e-11       1.868692944545e-12      -8.055322968115e-15 
   90       3.390363313524e-10       8.610741475805e-14      -2.357043508526e-12       3.224042328977e-16       1.321091167479e-11       1.825454673474e-12      -8.030853669439e-15 
   91       3.431845552435e-10       8.824992877353e-14      -2.445490779058e-12       3.296472823697e-16       1.284282756989e-11       1.783651558998e-12      -8.002310196111e-15 
   92       3.473641033947e-10       9.039006409023e-14      -2.534633124276e-12       3.369742897030e-16       1.248735033242e-11       1.743129423955e-12      -7.966076644410e-15 
   93       3.515738597070e-10       9.252584229857e-14      -2.624403389892e-12       3.443856404297e-16       1.214319472256e-11       1.703744965175e-12      -7.919086081719e-15 
   94       3.558138810636e-10       9.465537717551e-14      -2.714737542260e-12       3.518817834108e-16       1.181019883203e-11       1.665489482511e-12      -7.861550751882e-15 
   95       3.600844162841e-10       9.677678530458e-14      -2.805571407531e-12       3.594632033088e-16       1.148842280432e-11       1.628382093335e-12      -7.794628558339e-15 
   96       3.643855541947e-10       9.888815475448e-14      -2.896839530621e-12       3.671304112387e-16       1.117782746404e-11       1.592431683259e-12      -7.719599478713e-15 
   97       3.687172162144e-10       1.009875455514e-13      -2.988475195029e-12       3.748839453758e-16       1.087827051555e-11       1.557636498119e-12      -7.637868846612e-15 
   98       3.730791489413e-10       1.030729901513e-13      -3.080410442655e-12       3.827243715630e-16       1.058950274152e-11       1.523983735957e-12      -7.550970633440e-15 
   99       3.774709167389e-10       1.051424939123e-13      -3.172576093613e-12       3.906522839176e-16       1.031116420153e-11       1.491449139011e-12      -7.460570730199e-15 
  100       3.818918943222e-10       1.071940355672e-13      -3.264901766056e-12       3.986683054392e-16       1.004278043071e-11       1.459996585693e-12      -7.368470229297e-15 
  101       3.863412593440e-10       1.092255676955e-13      -3.357315895988e-12       4.067730886165e-16       9.783758638305e-12       1.429577682578e-12      -7.276608706357e-15 
  102       3.908179849812e-10       1.112350171959e-13      -3.449745757083e-12       4.149673160347e-16       9.533383906280e-12       1.400131356385e-12      -7.187067502017e-15 
  103       3.953208325213e-10       1.132202857589e-13      -3.542117480501e-12       4.232517009830e-16       9.290815387930e-12       1.371583445963e-12      -7.102073003741e-15 
  104       3.998486064183e-10       1.151793014504e-13      -3.634356628038e-12       4.316269646725e-16       9.055276549780e-12       1.343863628748e-12      -7.023512330157e-15 
  105       4.044009746709e-10       1.171101803839e-13      -3.726389957051e-12       4.400937630780e-16       8.826663352936e-12       1.316959683009e-12      -6.951398805455e-15 
  106       4.089777459605e-10       1.190110878699e-13      -3.818143931999e-12       4.486527512999e-16       8.605011523737e-12       1.290869829107e-12      -6.885204346169e-15 
  107       4.135786126019e-10       1.208801902766e-13      -3.909544217998e-12       4.573046064165e-16       8.390308197976e-12       1.265585834678e-12      -6.824326496396e-15 
