# dimensionless total [l(l+1)/2pi] C_l's
# for l=2 to 3000, i.e. number of multipoles equal to 2999
#
# -> if you prefer output in CAMB/HealPix/LensPix units/order, set 'format' to 'camb' in input file
# -> if you don't want to see such a header, set 'headers' to 'no' in input file
# -> for CMB lensing (phi), these are C_l^phi-phi for the lensing potential.
#    Remember the conversion factors:
#    C_l^dd (deflection) = l(l+1) C_l^phi-phi
#    C_l^gg (shear/convergence) = 1/4 (l(l+1))^2 C_l^phi-phi
#
# 1:l     2:TT                     3:EE                     4:TE                     5:BB                     6:phiphi                 7:TPhi                   8:Ephi               
    2       1.513637858258e-10       4.793937136199e-15       3.799568341828e-13       0.000000000000e+00       8.308931276537e-09       5.059112926857e-10      -2.012657908127e-12 
    3       1.417607386564e-10       6.054171939134e-15       4.281347596959e-13       0.000000000000e+00       5.129803810380e-09       3.573063575374e-10      -1.512217449761e-12 
    4       1.331011862392e-10       5.148220924199e-15       3.998167451983e-13       0.000000000000e+00       3.573412313019e-09       2.695798105847e-10      -9.767915873073e-13 
    5       1.266637166606e-10       3.372204526583e-15       3.391753295892e-13       0.000000000000e+00       2.668743731788e-09       2.123132665494e-10      -5.310281825433e-13 
    6       1.222129035141e-10       1.854981125318e-15       2.715872873978e-13       0.000000000000e+00       2.084687297726e-09       1.723350686157e-10      -2.072584889441e-13 
    7       1.192618721477e-10       9.970929598003e-16       2.117225320573e-13       0.000000000000e+00       1.680638593510e-09       1.430920922796e-10      -5.088525864052e-15 
    8       1.174518445776e-10       6.484100356838e-16       1.659071965063e-13       0.000000000000e+00       1.387202068600e-09       1.209773844402e-10       9.390960964155e-14 
    9       1.164842536932e-10       5.208346611442e-16       1.354182057354e-13       0.000000000000e+00       1.166710377369e-09       1.038402017309e-10       1.170788714688e-13 
   10       1.161116629916e-10       4.388703254449e-16       1.186540771525e-13       0.000000000000e+00       9.966362838245e-10       9.028047416559e-11       9.395892967277e-14 
   11       1.162377244478e-10       3.648791282010e-16       1.125831050780e-13       0.000000000000e+00       8.432472010878e-10       7.968598162676e-11       5.145235820006e-14 
   12       1.167165899650e-10       3.171920740062e-16       1.137793421402e-13       0.000000000000e+00       7.367183328760e-10       7.043640597326e-11       8.506007233540e-15 
   13       1.174785094612e-10       3.043659620150e-16       1.192690286876e-13       0.000000000000e+00       6.492678243760e-10       6.289382081840e-11      -2.257334273074e-14 
   14       1.184505954269e-10       3.151750800324e-16       1.268685981769e-13       0.000000000000e+00       5.765086363573e-10       5.630746876448e-11      -3.807921837854e-14 
   15       1.196304611825e-10       3.376022103069e-16       1.351596737562e-13       0.000000000000e+00       5.152646802050e-10       5.077090663748e-11      -3.911724149664e-14 
   16       1.209585184644e-10       3.710516650527e-16       1.435382930345e-13       0.000000000000e+00       4.631939037495e-10       4.602120900284e-11      -3.058999734764e-14 
   17       1.224244632123e-10       4.221523436933e-16       1.519061377574e-13       0.000000000000e+00       4.185270227648e-10       4.189320817227e-11      -1.835707946643e-14 
   18       1.239802790526e-10       4.958409157153e-16       1.605037607587e-13       0.000000000000e+00       3.797607127751e-10       3.827083241713e-11      -7.624526926906e-15 
   19       1.256374901176e-10       5.918709071028e-16       1.695719142731e-13       0.000000000000e+00       3.462765913204e-10       3.511442052237e-11      -8.584026447064e-16 
   20       1.273748774104e-10       7.076958743927e-16       1.792907220167e-13       0.000000000000e+00       3.167870338125e-10       3.233018134086e-11       6.145679326862e-16 
   21       1.291986809694e-10       8.427116678703e-16       1.896137254278e-13       0.000000000000e+00       2.908288461550e-10       2.986668150249e-11      -2.207639372686e-15 
   22       1.310904829849e-10       9.965698006943e-16       2.003191405778e-13       0.000000000000e+00       2.677801661037e-10       2.764735978880e-11      -7.115546095775e-15 
   23       1.330483084513e-10       1.169037377583e-15       2.109675557961e-13       0.000000000000e+00       2.473241372024e-10       2.564957960057e-11      -1.224087941514e-14 
   24       1.350550916018e-10       1.359837193870e-15       2.210159523520e-13       0.000000000000e+00       2.289882357662e-10       2.384572732424e-11      -1.575951666877e-14 
   25       1.371216998975e-10       1.569514114357e-15       2.301934957847e-13       0.000000000000e+00       2.125567378322e-10       2.222828479416e-11      -1.704047918687e-14 
   26       1.392487255490e-10       1.799078382723e-15       2.383246270300e-13       0.000000000000e+00       1.977320941935e-10       2.077757223972e-11      -1.603164552656e-14 
   27       1.414219964846e-10       2.050587351998e-15       2.453418108504e-13       0.000000000000e+00       1.843363537489e-10       1.946525628297e-11      -1.354543252723e-14 
   28       1.436146985245e-10       2.326413237742e-15       2.512396630674e-13       0.000000000000e+00       1.721384858027e-10       1.825335550212e-11      -1.073998358087e-14 
   29       1.458369974368e-10       2.628002389722e-15       2.560836464743e-13       0.000000000000e+00       1.610761272562e-10       1.714070317313e-11      -8.251075727913e-15 
   30       1.480998946881e-10       2.956498123616e-15       2.599970413993e-13       0.000000000000e+00       1.510304408498e-10       1.612908223404e-11      -6.645365047826e-15 
   31       1.504033764897e-10       3.312973585492e-15       2.631049423788e-13       0.000000000000e+00       1.417964644567e-10       1.521070290430e-11      -6.413611390235e-15 
   32       1.527498348830e-10       3.698348064451e-15       2.653517539726e-13       0.000000000000e+00       1.333264350673e-10       1.437515305047e-11      -7.275241516651e-15 
   33       1.551328272751e-10       4.113424811494e-15       2.666141160427e-13       0.000000000000e+00       1.255603745176e-10       1.360308586222e-11      -8.596712259946e-15 
   34       1.575390868455e-10       4.558960372497e-15       2.667508618048e-13       0.000000000000e+00       1.183895198510e-10       1.287152446032e-11      -9.698407636753e-15 
   35       1.599730619701e-10       5.035862075961e-15       2.656197001542e-13       0.000000000000e+00       1.117771087948e-10       1.218237718923e-11      -1.034719673115e-14 
   36       1.624391970287e-10       5.545051481483e-15       2.630636579494e-13       0.000000000000e+00       1.056700405952e-10       1.154307086202e-11      -1.042958065632e-14 
   37       1.649369445176e-10       6.087395474047e-15       2.589391246527e-13       0.000000000000e+00       9.998877743195e-11       1.095788272983e-11      -9.879827286714e-15 
   38       1.674687672781e-10       6.663659793091e-15       2.532322269828e-13       0.000000000000e+00       9.471859362582e-11       1.042492609248e-11      -8.879747534345e-15 
   39       1.700335502094e-10       7.274533205727e-15       2.459815970885e-13       0.000000000000e+00       8.984272400294e-11       9.937612555071e-12      -7.729765402702e-15 
   40       1.726236200324e-10       7.920634210543e-15       2.372490171654e-13       0.000000000000e+00       8.531460860674e-11       9.485007266523e-12      -6.801272950501e-15 
   41       1.752290789673e-10       8.602553953597e-15       2.270964592623e-13       0.000000000000e+00       8.107410012350e-11       9.055127338288e-12      -6.434254821385e-15 
   42       1.778540763695e-10       9.321012543573e-15       2.155048449003e-13       0.000000000000e+00       7.710867803946e-11       8.646976209920e-12      -6.579192484186e-15 
   43       1.805047320637e-10       1.007674608523e-14       2.024311988948e-13       0.000000000000e+00       7.340778821213e-11       8.261833324668e-12      -7.046210968065e-15 
   44       1.831842990235e-10       1.087046247971e-14       1.878304612571e-13       0.000000000000e+00       6.994447515346e-11       7.899841405456e-12      -7.599153235541e-15 
   45       1.858938611951e-10       1.170280329898e-14       1.716560171178e-13       0.000000000000e+00       6.668500014619e-11       7.560283164233e-12      -8.011608897365e-15 
   46       1.886354117366e-10       1.257421872837e-14       1.538621269307e-13       0.000000000000e+00       6.362420060802e-11       7.242749431621e-12      -8.261625243474e-15 
   47       1.914091637788e-10       1.348505313549e-14       1.344017525120e-13       0.000000000000e+00       6.075848130530e-11       6.946147475379e-12      -8.390406608188e-15 
   48       1.942123726226e-10       1.443557544198e-14       1.132255896563e-13       0.000000000000e+00       5.807514988661e-11       6.668275323236e-12      -8.449069611238e-15 
   49       1.970390815917e-10       1.542597576367e-14       9.028183810418e-14       0.000000000000e+00       5.555174061169e-11       6.405741977252e-12      -8.499210322932e-15 
   50       1.998828816916e-10       1.645639330529e-14       6.552231937906e-14       0.000000000000e+00       5.316277303175e-11       6.154952815424e-12      -8.599464006608e-15 
   51       2.027466632966e-10       1.752701676578e-14       3.892332167927e-14       0.000000000000e+00       5.090375975728e-11       5.915566227671e-12      -8.759567640409e-15 
   52       2.056350721394e-10       1.863800537921e-14       1.047001547163e-14       0.000000000000e+00       4.877254635140e-11       5.687837330255e-12      -8.974808566074e-15 
   53       2.085516171983e-10       1.978945819791e-14      -1.984933279289e-14       0.000000000000e+00       4.676212728955e-11       5.471605828033e-12      -9.238852268799e-15 
   54       2.114985583764e-10       2.098141220343e-14      -5.204329198800e-14       0.000000000000e+00       4.486031956845e-11       5.266266355284e-12      -9.543650369564e-15 
   55       2.144772110490e-10       2.221385493792e-14      -8.611779830833e-14       0.000000000000e+00       4.305347419940e-11       5.071028802345e-12      -9.878999379826e-15 
   56       2.174892056175e-10       2.348677040025e-14      -1.220780633854e-13       0.000000000000e+00       4.133943812741e-11       4.885842973382e-12      -1.023129938455e-14 
   57       2.205353441168e-10       2.480010124263e-14      -1.599270198708e-13       0.000000000000e+00       3.971724063156e-11       4.710651683094e-12      -1.058432583073e-14 
   58       2.236151167747e-10       2.615373395466e-14      -1.996647179772e-13       0.000000000000e+00       3.818317216817e-11       4.545102934839e-12      -1.091944843193e-14 
   59       2.267266059318e-10       2.754749754000e-14      -2.412882801907e-13       0.000000000000e+00       3.673061529991e-11       4.388531559612e-12      -1.121552555394e-14 
   60       2.298663899632e-10       2.898116219307e-14      -2.847918559835e-13       0.000000000000e+00       3.534987562501e-11       4.239940855022e-12      -1.144879860045e-14 
   61       2.330310014733e-10       3.045438721074e-14      -3.301674306733e-13       0.000000000000e+00       3.403087011624e-11       4.098275186047e-12      -1.159847135004e-14 
   62       2.362219017186e-10       3.196655405871e-14      -3.774075666187e-13       0.000000000000e+00       3.277227976411e-11       3.963350827208e-12      -1.166515033071e-14 
   63       2.394414573348e-10       3.351689331635e-14      -4.265031997513e-13       0.000000000000e+00       3.157416067303e-11       3.835102426819e-12      -1.165637500794e-14 
   64       2.426914387534e-10       3.510452925923e-14      -4.774428218958e-13       0.000000000000e+00       3.043519108208e-11       3.713301534040e-12      -1.158137136301e-14 
   65       2.459729734385e-10       3.672847692512e-14      -5.302124625841e-13       0.000000000000e+00       2.935259295756e-11       3.597547469844e-12      -1.145112665789e-14 
   66       2.492864991236e-10       3.838763917992e-14      -5.847956708690e-13       0.000000000000e+00       2.832205358563e-11       3.487258197994e-12      -1.127846420007e-14 
   67       2.526317170486e-10       4.008080378357e-14      -6.411734971379e-13       0.000000000000e+00       2.733764716490e-11       3.381661196016e-12      -1.107811810745e-14 
   68       2.560081339981e-10       4.180675196342e-14      -6.993244680383e-13       0.000000000000e+00       2.639341500067e-11       3.279996242701e-12      -1.086418841593e-14 
   69       2.594169204842e-10       4.356461623929e-14      -7.592245460069e-13       0.000000000000e+00       2.548865316150e-11       3.182191901408e-12      -1.064174048250e-14 
   70       2.628593468033e-10       4.535359016544e-14      -8.208471288317e-13       0.000000000000e+00       2.462356030940e-11       3.088310340109e-12      -1.041362989003e-14 
   71       2.663361964123e-10       4.717282315766e-14      -8.841630377817e-13       0.000000000000e+00       2.379763855415e-11       2.998343900373e-12      -1.018297912295e-14 
   72       2.698477342248e-10       4.902142041104e-14      -9.491404992440e-13       0.000000000000e+00       2.300965746538e-11       2.912211388204e-12      -9.953185333288e-15 
   73       2.733936749066e-10       5.089844281783e-14      -1.015745126362e-12       0.000000000000e+00       2.225761808465e-11       2.829754364866e-12      -9.727928106571e-15 
   74       2.769731511715e-10       5.280290688518e-14      -1.083939900672e-12       0.000000000000e+00       2.153871693756e-11       2.750733437722e-12      -9.511177227826e-15 
   75       2.805846820767e-10       5.473378465294e-14      -1.153685153743e-12       0.000000000000e+00       2.084931004580e-11       2.674824551064e-12      -9.307200447534e-15 
   76       2.842268285948e-10       5.668995820271e-14      -1.224940097869e-12       0.000000000000e+00       2.018581600297e-11       2.601703343078e-12      -9.119800317584e-15 
   77       2.879003684251e-10       5.867007378943e-14      -1.297667781006e-12       0.000000000000e+00       1.954769487538e-11       2.531324175308e-12      -8.949846866127e-15 
   78       2.916064620117e-10       6.067266083706e-14      -1.371831006228e-12       0.000000000000e+00       1.893494965919e-11       2.463685483157e-12      -8.797307012907e-15 
   79       2.953459831246e-10       6.269617399061e-14      -1.447390876015e-12       0.000000000000e+00       1.834721894665e-11       2.398744351215e-12      -8.661967671855e-15 
   80       2.991195012483e-10       6.473899210278e-14      -1.524306805653e-12       0.000000000000e+00       1.778376019443e-11       2.336414609961e-12      -8.543427708520e-15 
   81       3.029272639708e-10       6.679941722066e-14      -1.602536536641e-12       0.000000000000e+00       1.724343299201e-11       2.276564932466e-12      -8.441089897487e-15 
   82       3.067691793726e-10       6.887567357235e-14      -1.682036150085e-12       0.000000000000e+00       1.672468232997e-11       2.219016931090e-12      -8.354152879800e-15 
   83       3.106447984153e-10       7.096590655362e-14      -1.762760080109e-12       0.000000000000e+00       1.622552186842e-11       2.163543254182e-12      -8.281603120383e-15 
   84       3.145536102763e-10       7.306824276948e-14      -1.844660510342e-12       0.000000000000e+00       1.574401571902e-11       2.109922543376e-12      -8.222175499969e-15 
   85       3.184960231836e-10       7.518098381509e-14      -1.927685419078e-12       0.000000000000e+00       1.527985220974e-11       2.058118942659e-12      -8.174245201665e-15 
   86       3.224725146494e-10       7.730244291111e-14      -2.011780233117e-12       0.000000000000e+00       1.483300155340e-11       2.008128996859e-12      -8.135903072468e-15 
   87       3.264833208124e-10       7.943088671756e-14      -2.096888418840e-12       0.000000000000e+00       1.440323230040e-11       1.959926503261e-12      -8.104976951794e-15 
   88       3.305284240858e-10       8.156453534664e-14      -2.182951485255e-12       0.000000000000e+00       1.399010298553e-11       1.913461563944e-12      -8.079023101750e-15 
   89       3.346075408060e-10       8.370156237551e-14      -2.269908987022e-12       0.000000000000e+00       1.359295377467e-11       1.868659638121e-12      -8.055317637401e-15 
   90       3.387201088810e-10       8.584009485910e-14      -2.357698527491e-12       0.000000000000e+00       1.321089811149e-11       1.825420594482e-12      -8.030847957047e-15 
   91       3.428652754391e-10       8.797821334283e-14      -2.446255761735e-12       0.000000000000e+00       1.284281436424e-11       1.783617763532e-12      -8.002304172487e-15 
   92       3.470418844769e-10       9.011395187549e-14      -2.535514399587e-12       0.000000000000e+00       1.248733747244e-11       1.743096989932e-12      -7.966070539297e-15 
   93       3.512488244565e-10       9.224533097508e-14      -2.625407416851e-12       0.000000000000e+00       1.214318219750e-11       1.703714966957e-12      -7.919080258624e-15 
   94       3.554861577261e-10       9.437046217046e-14      -2.715870890750e-12       0.000000000000e+00       1.181018663129e-11       1.665462893389e-12      -7.861545559080e-15 
   95       3.597541389174e-10       9.648745927960e-14      -2.806840749625e-12       0.000000000000e+00       1.148841091723e-11       1.628359749041e-12      -7.794624285359e-15 
   96       3.640528628220e-10       9.859440731628e-14      -2.898251635509e-12       0.000000000000e+00       1.117781587997e-11       1.592414266789e-12      -7.719596350024e-15 
   97       3.683822569804e-10       1.006893629552e-13      -2.990036923740e-12       0.000000000000e+00       1.087825922398e-11       1.557624524133e-12      -7.637867015142e-15 
   98       3.727420742715e-10       1.027703549972e-13      -3.082128742589e-12       0.000000000000e+00       1.058949173217e-11       1.523977534757e-12      -7.550970173911e-15 
   99       3.771318855018e-10       1.048353848343e-13      -3.174457992868e-12       0.000000000000e+00       1.031115346448e-11       1.491448840088e-12      -7.460571632295e-15 
  100       3.815510719953e-10       1.068824269148e-13      -3.266954367557e-12       0.000000000000e+00       1.004276995646e-11       1.460002100855e-12      -7.368472390648e-15 
  101       3.859988181826e-10       1.089094292085e-13      -3.359546371416e-12       0.000000000000e+00       9.783748417939e-12       1.429588688649e-12      -7.276611925349e-15 
  102       3.904741041901e-10       1.109143136717e-13      -3.452161340610e-12       0.000000000000e+00       9.533373931562e-12       1.400147277483e-12      -7.187071470431e-15 
  103       3.949756984298e-10       1.128949767125e-13      -3.544725462322e-12       0.000000000000e+00       9.290805651428e-12       1.371603435349e-12      -7.102077299213e-15 
  104       3.995024123143e-10       1.148493406763e-13      -3.637164349435e-12       0.000000000000e+00       9.055267044806e-12       1.343886610421e-12      -7.023516441824e-15 
  105       4.040539195494e-10       1.167755152214e-13      -3.729404810730e-12       0.000000000000e+00       8.826654072898e-12       1.316984582620e-12      -6.951402264681e-15 
  106       4.086300342161e-10       1.186716587117e-13      -3.821373357502e-12       0.000000000000e+00       8.605002462003e-12       1.290895640453e-12      -6.885206766121e-15 
  107       4.132304540520e-10       1.205359301558e-13      -3.912995695262e-12       0.000000000000e+00       8.390299347925e-12       1.265611628549e-12      -6.824327579717e-15 
