# dimensionless total [l(l+1)/2pi] C_l's
# for l=2 to 3000, i.e. number of multipoles equal to 2999
#
# -> if you prefer output in CAMB/HealPix/LensPix units/order, set 'format' to 'camb' in input file
# -> if you don't want to see such a header, set 'headers' to 'no' in input file
# -> for CMB lensing (phi), these are C_l^phi-phi for the lensing potential.
#    Remember the conversion factors:
#    C_l^dd (deflection) = l(l+1) C_l^phi-phi
#    C_l^gg (shear/convergence) = 1/4 (l(l+1))^2 C_l^phi-phi
#
# 1:l     2:TT                     3:EE                     4:TE                     5:BB                     6:phiphi                 7:TPhi                   8:Ephi               
    2       1.513659150667e-10       4.793967741396e-15       3.799582107714e-13       0.000000000000e+00       8.309227778566e-09       5.059271095861e-10      -2.012683148288e-12 
    3       1.417618748155e-10       6.054218225570e-15       4.281333418759e-13       0.000000000000e+00       5.130008523047e-09       3.573185455367e-10      -1.512239650344e-12 
    4       1.331023074693e-10       5.148281184747e-15       3.998179149844e-13       0.000000000000e+00       3.573565934480e-09       2.695893487819e-10      -9.768076851435e-13 
    5       1.266651942582e-10       3.372254558282e-15       3.391792650963e-13       0.000000000000e+00       2.668864944488e-09       2.123210398118e-10      -5.310368297006e-13 
    6       1.222146828872e-10       1.855014581944e-15       2.715918542898e-13       0.000000000000e+00       2.084786502609e-09       1.723416847270e-10      -2.072611283431e-13 
    7       1.192636396193e-10       9.971167669883e-16       2.117270193381e-13       0.000000000000e+00       1.680721563245e-09       1.430978790760e-10      -5.087602625663e-15 
    8       1.174535861849e-10       6.484297893155e-16       1.659114827255e-13       0.000000000000e+00       1.387272766193e-09       1.209825110424e-10       9.391191150368e-14 
    9       1.164860265129e-10       5.208523999318e-16       1.354222243705e-13       0.000000000000e+00       1.166771980046e-09       1.038448331231e-10       1.170810795065e-13 
   10       1.161133641551e-10       4.388865989874e-16       1.186582216004e-13       0.000000000000e+00       9.966907297890e-10       9.028475764059e-11       9.396030381181e-14 
   11       1.162394217343e-10       3.648946204300e-16       1.125876076304e-13       0.000000000000e+00       8.432958620226e-10       7.969000860927e-11       5.145275405835e-14 
   12       1.167182869905e-10       3.172082702120e-16       1.137843406094e-13       0.000000000000e+00       7.367619980460e-10       7.044003481647e-11       8.505593495970e-15 
   13       1.174802217556e-10       3.043845166201e-16       1.192746270283e-13       0.000000000000e+00       6.493073623452e-10       6.289707177717e-11      -2.257420719209e-14 
   14       1.184523905433e-10       3.151974236347e-16       1.268748760913e-13       0.000000000000e+00       5.765445020886e-10       5.631052107764e-11      -3.808022239037e-14 
   15       1.196323774645e-10       3.376292765602e-16       1.351666950711e-13       0.000000000000e+00       5.152974209526e-10       5.077378429511e-11      -3.911814317560e-14 
   16       1.209604594702e-10       3.710844775245e-16       1.435459152410e-13       0.000000000000e+00       4.632239453659e-10       4.602379483134e-11      -3.059071044437e-14 
   17       1.224265045524e-10       4.221927403620e-16       1.519143819518e-13       0.000000000000e+00       4.185546449834e-10       4.189549595271e-11      -1.835761550881e-14 
   18       1.239823718506e-10       4.958901400607e-16       1.605125482214e-13       0.000000000000e+00       3.797861744882e-10       3.827298450121e-11      -7.624991773703e-15 
   19       1.256396042754e-10       5.919305770657e-16       1.695812229996e-13       0.000000000000e+00       3.463001438775e-10       3.511649213054e-11      -8.588786805785e-16 
   20       1.273770801996e-10       7.077683728172e-16       1.793006637939e-13       0.000000000000e+00       3.168088682106e-10       3.233204061238e-11       6.140687783823e-16 
   21       1.292009985927e-10       8.427990931242e-16       1.896243287477e-13       0.000000000000e+00       2.908491282934e-10       2.986829651869e-11      -2.208167537826e-15 
   22       1.310928592962e-10       9.966736147354e-16       2.003302784187e-13       0.000000000000e+00       2.677990261686e-10       2.764887528616e-11      -7.116121041581e-15 
   23       1.330507059491e-10       1.169159097515e-15       2.109790816255e-13       0.000000000000e+00       2.473416999764e-10       2.565106774156e-11      -1.224150652033e-14 
   24       1.350575245474e-10       1.359978673859e-15       2.210277545809e-13       0.000000000000e+00       2.290046159831e-10       2.384711632947e-11      -1.576017548493e-14 
   25       1.371241951751e-10       1.569677659269e-15       2.302055137485e-13       0.000000000000e+00       2.125720440678e-10       2.222953135212e-11      -1.704111363946e-14 
   26       1.392513065983e-10       1.799266698690e-15       2.383368461082e-13       0.000000000000e+00       1.977464200689e-10       2.077870909864e-11      -1.603217337958e-14 
   27       1.414246683577e-10       2.050802894589e-15       2.453541703074e-13       0.000000000000e+00       1.843497833431e-10       1.946630395848e-11      -1.354582555254e-14 
   28       1.436174453557e-10       2.326658061852e-15       2.512520393752e-13       0.000000000000e+00       1.721510898540e-10       1.825430031399e-11      -1.074029078840e-14 
   29       1.458398087936e-10       2.628278762651e-15       2.560959532878e-13       0.000000000000e+00       1.610879748363e-10       1.714154932013e-11      -8.251362416015e-15 
   30       1.481027763820e-10       2.956808776162e-15       2.600092745930e-13       0.000000000000e+00       1.510415963147e-10       1.612987371590e-11      -6.645692057860e-15 
   31       1.504063505494e-10       3.313321643033e-15       2.631171687731e-13       0.000000000000e+00       1.418069816210e-10       1.521151542296e-11      -6.414026971742e-15 
   32       1.527529237293e-10       3.698736372262e-15       2.653639803277e-13       0.000000000000e+00       1.333363643057e-10       1.437602358815e-11      -7.275759273787e-15 
   33       1.551360476549e-10       4.113855625781e-15       2.666262305542e-13       0.000000000000e+00       1.255697605889e-10       1.360397966687e-11      -8.597296492482e-15 
   34       1.575424482272e-10       4.559435399980e-15       2.667626423936e-13       0.000000000000e+00       1.183983986525e-10       1.287234130142e-11      -9.698978808792e-15 
   35       1.599765668934e-10       5.036383221757e-15       2.656309550255e-13       0.000000000000e+00       1.117855141254e-10       1.218304276893e-11      -1.034769734840e-14 
   36       1.624428399509e-10       5.545621142084e-15       2.630742811972e-13       0.000000000000e+00       1.056780037474e-10       1.154357366646e-11      -1.043000259663e-14 
   37       1.649407124821e-10       6.088016553581e-15       2.589490895562e-13       0.000000000000e+00       9.999632547480e-11       1.095827322779e-11      -9.880211300007e-15 
   38       1.674726490167e-10       6.664335381435e-15       2.532414796645e-13       0.000000000000e+00       9.472575333190e-11       1.042525996851e-11      -8.880138880261e-15 
   39       1.700375396212e-10       7.275266487889e-15       2.459900167962e-13       0.000000000000e+00       8.984952161428e-11       9.937931712490e-12      -7.730199110227e-15 
   40       1.726277175151e-10       7.921428466511e-15       2.372564020655e-13       0.000000000000e+00       8.532106786497e-11       9.485335420603e-12      -6.801770527908e-15 
   41       1.752332907784e-10       8.603412363695e-15       2.271025400782e-13       0.000000000000e+00       8.108024131294e-11       9.055469424204e-12      -6.434823188153e-15 
   42       1.778584071025e-10       9.321937334571e-15       2.155093951577e-13       0.000000000000e+00       7.711452088939e-11       8.647331466522e-12      -6.579830989526e-15 
   43       1.805091819131e-10       1.007773812082e-14       2.024340784931e-13       0.000000000000e+00       7.341335189998e-11       8.262198637449e-12      -7.046912569728e-15 
   44       1.831888628564e-10       1.087152101352e-14       1.878316350628e-13       0.000000000000e+00       6.994977713481e-11       7.900210888654e-12      -7.599903395303e-15 
   45       1.858985291132e-10       1.170392605901e-14       1.716555486118e-13       0.000000000000e+00       6.669005563553e-11       7.560648652536e-12      -8.012386697341e-15 
   46       1.886401747676e-10       1.257540314562e-14       1.538600855907e-13       0.000000000000e+00       6.362902446592e-11       7.243104079165e-12      -8.262412097298e-15 
   47       1.914140158778e-10       1.348629674754e-14       1.343981834952e-13       0.000000000000e+00       6.076308807832e-11       6.946487137257e-12      -8.391189546387e-15 
   48       1.942173112941e-10       1.443687598761e-14       1.132205068495e-13       0.000000000000e+00       5.807955311451e-11       6.668599114922e-12      -8.449842553034e-15 
   49       1.970441085459e-10       1.542733128389e-14       9.027521674871e-14       0.000000000000e+00       5.555595208333e-11       6.406052864721e-12      -8.499975419702e-15 
   50       1.998880025437e-10       1.645780223042e-14       6.551409606890e-14       0.000000000000e+00       5.316680256438e-11       6.155257032798e-12      -8.600230754526e-15 
   51       2.027518840100e-10       1.752847794149e-14       3.891341982704e-14       0.000000000000e+00       5.090761683251e-11       5.915868731036e-12      -8.760344420486e-15 
   52       2.056403978992e-10       1.863951814810e-14       1.045835148463e-14       0.000000000000e+00       4.877624030974e-11       5.688140192421e-12      -8.975599825179e-15 
   53       2.085570521863e-10       1.979102250523e-14      -1.986285058821e-14       0.000000000000e+00       4.676566697045e-11       5.471907717103e-12      -9.239657787700e-15 
   54       2.115041055320e-10       2.098302870831e-14      -5.205876447997e-14       0.000000000000e+00       4.486371292609e-11       5.266561987295e-12      -9.544464494285e-15 
   55       2.144828720055e-10       2.221552494048e-14      -8.613533287172e-14       0.000000000000e+00       4.305672817672e-11       5.071309483987e-12      -9.879811473867e-15 
   56       2.174949812407e-10       2.348849515059e-14      -1.220977583097e-13       0.000000000000e+00       4.134255943577e-11       4.886100791482e-12      -1.023209838289e-14 
   57       2.205412345682e-10       2.480188172394e-14      -1.599489585433e-13       0.000000000000e+00       3.972023580719e-11       4.710880907845e-12      -1.058510164676e-14 
   58       2.236211213946e-10       2.615557084043e-14      -1.996889666149e-13       0.000000000000e+00       3.818604735270e-11       4.545300403570e-12      -1.092019220814e-14 
   59       2.267327231175e-10       2.754939114935e-14      -2.413148854773e-13       0.000000000000e+00       3.673337600766e-11       4.388697078107e-12      -1.121622992495e-14 
   60       2.298726170406e-10       2.898311244403e-14      -2.848208426122e-13       0.000000000000e+00       3.535252649693e-11       4.240077616384e-12      -1.144945796829e-14 
   61       2.330373349431e-10       3.045639366426e-14      -3.301988033234e-13       0.000000000000e+00       3.403341492207e-11       4.098389371101e-12      -1.159908196517e-14 
   62       2.362283387342e-10       3.196861626263e-14      -3.774413266089e-13       0.000000000000e+00       3.277472224438e-11       3.963448495102e-12      -1.166570971102e-14 
   63       2.394479962163e-10       3.351901091355e-14      -4.265393501582e-13       0.000000000000e+00       3.157650470698e-11       3.835188535555e-12      -1.165688189238e-14 
   64       2.426980791523e-10       3.510670201015e-14      -4.774813684830e-13       0.000000000000e+00       3.043744060580e-11       3.713379734558e-12      -1.158182586431e-14 
   65       2.459797165093e-10       3.673070473127e-14      -5.302534147804e-13       0.000000000000e+00       2.935475187715e-11       3.597619891131e-12      -1.145153042104e-14 
   66       2.492933477015e-10       3.838992210834e-14      -5.848390427958e-13       0.000000000000e+00       2.832412568534e-11       3.487325223214e-12      -1.127882056661e-14 
   67       2.526386758336e-10       4.008314209238e-14      -6.412193086862e-13       0.000000000000e+00       2.733963601031e-11       3.381721229669e-12      -1.107843228545e-14 
   68       2.560152093081e-10       4.180914607349e-14      -6.993727441937e-13       0.000000000000e+00       2.639532391979e-11       3.280046009152e-12      -1.086446724252e-14 
   69       2.594241185999e-10       4.356706652980e-14      -7.592753103978e-13       0.000000000000e+00       2.549048548950e-11       3.182228482625e-12      -1.064199085504e-14 
   70       2.628666734458e-10       4.535609691151e-14      -8.209004019671e-13       0.000000000000e+00       2.462531941439e-11       3.088331812097e-12      -1.041385826798e-14 
   71       2.663436566287e-10       4.717538651921e-14      -8.842188369889e-13       0.000000000000e+00       2.379932778191e-11       2.998349465203e-12      -1.018319141437e-14 
   72       2.698553322687e-10       4.902404042121e-14      -9.491988386099e-13       0.000000000000e+00       2.301128008115e-11       2.912201510877e-12      -9.953386776506e-15 
   73       2.734014141140e-10       5.090111937101e-14      -1.015806016677e-12       0.000000000000e+00       2.225917721211e-11       2.829730915032e-12      -9.728123147051e-15 
   74       2.769810338315e-10       5.280563972462e-14      -1.084003349379e-12       0.000000000000e+00       2.154021549486e-11       2.750699836233e-12      -9.511369390212e-15 
   75       2.805927092981e-10       5.473657335797e-14      -1.153751164884e-12       0.000000000000e+00       2.085075067876e-11       2.674785921381e-12      -9.307392202877e-15 
   76       2.842350002205e-10       5.669280221358e-14      -1.225008674081e-12       0.000000000000e+00       2.018720108824e-11       2.601666184643e-12      -9.119993082308e-15 
   77       2.879086831129e-10       5.867297255399e-14      -1.297738932055e-12       0.000000000000e+00       1.954902675457e-11       2.531294491501e-12      -8.950041434612e-15 
   78       2.916149171705e-10       6.067561385716e-14      -1.371904752204e-12       0.000000000000e+00       1.893623067916e-11       2.463668180340e-12      -8.797503627139e-15 
   79       2.953545747969e-10       6.269918083281e-14      -1.447467248644e-12       0.000000000000e+00       1.834845142922e-11       2.398743090684e-12      -8.662165959553e-15 
   80       2.991282239883e-10       6.474205240947e-14      -1.524385849648e-12       0.000000000000e+00       1.778494640483e-11       2.336431654835e-12      -8.543626619240e-15 
   81       3.029361107197e-10       6.680253072147e-14      -1.602618311099e-12       0.000000000000e+00       1.724457510582e-11       2.276600989514e-12      -8.441287636708e-15 
   82       3.067781413292e-10       6.887884009597e-14      -1.682120729935e-12       0.000000000000e+00       1.672578239876e-11       2.219070987510e-12      -8.354346840994e-15 
   83       3.106538649036e-10       7.096912604001e-14      -1.762847557596e-12       0.000000000000e+00       1.622658178397e-11       2.163612409315e-12      -8.281789815070e-15 
   84       3.145627694730e-10       7.307151525008e-14      -1.844750991575e-12       0.000000000000e+00       1.574503721509e-11       2.110002263741e-12      -8.222350804351e-15 
   85       3.185052655958e-10       7.518430929019e-14      -1.927779004723e-12       0.000000000000e+00       1.528083698668e-11       2.058204678649e-12      -8.174405617743e-15 
   86       3.224818342938e-10       7.730582131361e-14      -2.011877012378e-12       0.000000000000e+00       1.483395129780e-11       2.008216655287e-12      -8.136046139943e-15 
   87       3.264927155810e-10       7.943431790741e-14      -2.096988468168e-12       0.000000000000e+00       1.440414866702e-11       1.960012513711e-12      -8.105101359600e-15 
   88       3.305378961235e-10       8.156801910509e-14      -2.183054867006e-12       0.000000000000e+00       1.399098757833e-11       1.913542947265e-12      -8.079128802930e-15 
   89       3.346170968984e-10       8.370509839923e-14      -2.270015748083e-12       0.000000000000e+00       1.359380812723e-11       1.868734077067e-12      -8.055405967318e-15 
   90       3.387297608533e-10       8.584368275406e-14      -2.357808697867e-12       0.000000000000e+00       1.321172366668e-11       1.825486506488e-12      -8.030921754927e-15 
   91       3.428750405656e-10       8.798185261810e-14      -2.446369353096e-12       0.000000000000e+00       1.284361245311e-11       1.783674375636e-12      -8.002367906309e-15 
   92       3.470517859014e-10       9.011764193676e-14      -2.535631403770e-12       0.000000000000e+00       1.248810929243e-11       1.743144415838e-12      -7.966130434009e-15 
   93       3.512588898469e-10       9.224907110991e-14      -2.625527804802e-12       0.000000000000e+00       1.214392881923e-11       1.703754109184e-12      -7.919143972844e-15 
   94       3.554964123025e-10       9.437425150734e-14      -2.715994612889e-12       0.000000000000e+00       1.181090909770e-11       1.665494785928e-12      -7.861620422302e-15 
   95       3.597646032770e-10       9.649129676891e-14      -2.806967734928e-12       0.000000000000e+00       1.148911026296e-11       1.628385378925e-12      -7.794716763308e-15 
   96       3.640635524514e-10       9.859829171879e-14      -2.898381790108e-12       0.000000000000e+00       1.117849312233e-11       1.592434564938e-12      -7.719711942721e-15 
   97       3.683931817541e-10       1.006932928303e-13      -2.990170129494e-12       0.000000000000e+00       1.087891535362e-11       1.557640355912e-12      -7.638010152057e-15 
   98       3.727532379374e-10       1.027743286909e-13      -3.082264855616e-12       0.000000000000e+00       1.059012770336e-11       1.523989690244e-12      -7.551144106214e-15 
   99       3.771432851531e-10       1.048394004666e-13      -3.174596842055e-12       0.000000000000e+00       1.031177018511e-11       1.491458024054e-12      -7.460778322191e-15 
  100       3.815626975283e-10       1.068864823674e-13      -3.267095753026e-12       0.000000000000e+00       1.004336827772e-11       1.460008922456e-12      -7.368712397817e-15 
  101       3.860106517411e-10       1.089135221119e-13      -3.359690062967e-12       0.000000000000e+00       9.784329123624e-12       1.429593650833e-12      -7.276884290471e-15 
  102       3.904861195968e-10       1.109184413916e-13      -3.452307076124e-12       0.000000000000e+00       9.533937727074e-12       1.400150766103e-12      -7.187373595804e-15 
  103       3.949878606035e-10       1.128991363369e-13      -3.544872946139e-12       0.000000000000e+00       9.291353152458e-12       1.371605707993e-12      -7.102404826468e-15 
  104       3.995146790735e-10       1.148535290736e-13      -3.637313262785e-12       0.000000000000e+00       9.055798784383e-12       1.343887808852e-12      -7.023863528223e-15 
  105       4.040662509722e-10       1.167797293274e-13      -3.729554860262e-12       0.000000000000e+00       8.827170567111e-12       1.316984820328e-12      -6.951763122725e-15 
  106       4.086423954438e-10       1.186758956186e-13      -3.821524290827e-12       0.000000000000e+00       8.605504224403e-12       1.290895024751e-12      -6.885576105885e-15 
  107       4.132428157971e-10       1.205401871322e-13      -3.913147304967e-12       0.000000000000e+00       8.390786885808e-12       1.265610259650e-12      -6.824700666411e-15 
