# dimensionless total [l(l+1)/2pi] C_l's
# for l=2 to 3000, i.e. number of multipoles equal to 2999
#
# -> if you prefer output in CAMB/HealPix/LensPix units/order, set 'format' to 'camb' in input file
# -> if you don't want to see such a header, set 'headers' to 'no' in input file
# -> for CMB lensing (phi), these are C_l^phi-phi for the lensing potential.
#    Remember the conversion factors:
#    C_l^dd (deflection) = l(l+1) C_l^phi-phi
#    C_l^gg (shear/convergence) = 1/4 (l(l+1))^2 C_l^phi-phi
#
# 1:l     2:TT                     3:EE                     4:TE                     5:BB                     6:phiphi                 7:TPhi                   8:Ephi               
    2       1.513657738184e-10       4.793963271717e-15       3.799578565388e-13       0.000000000000e+00       8.309220285063e-09       5.059266399310e-10      -2.012681271517e-12 
    3       1.417617427819e-10       6.054212580879e-15       4.281329426689e-13       0.000000000000e+00       5.130003922058e-09       3.573182107612e-10      -1.512238240711e-12 
    4       1.331021826705e-10       5.148276384718e-15       3.998175422158e-13       0.000000000000e+00       3.573562730829e-09       2.695890986127e-10      -9.768067743669e-13 
    5       1.266650764532e-10       3.372251414180e-15       3.391789488971e-13       0.000000000000e+00       2.668862528264e-09       2.123208494105e-10      -5.310363338640e-13 
    6       1.222145680248e-10       1.855012852476e-15       2.715916012499e-13       0.000000000000e+00       2.084784612052e-09       1.723415313656e-10      -2.072609340405e-13 
    7       1.192635288902e-10       9.971158373601e-16       2.117268221465e-13       0.000000000000e+00       1.680720045268e-09       1.430977459473e-10      -5.087596988950e-15 
    8       1.174534745731e-10       6.484291847340e-16       1.659113280738e-13       0.000000000000e+00       1.387271547797e-09       1.209824019183e-10       9.391182393889e-14 
    9       1.164859183214e-10       5.208519140805e-16       1.354220982522e-13       0.000000000000e+00       1.166770964298e-09       1.038447462453e-10       1.170809687313e-13 
   10       1.161132534152e-10       4.388861891389e-16       1.186581110466e-13       0.000000000000e+00       9.966898560347e-10       9.028467985808e-11       9.396021357409e-14 
   11       1.162393134981e-10       3.648942797140e-16       1.125875025206e-13       0.000000000000e+00       8.432951093773e-10       7.968993252797e-11       5.145270460602e-14 
   12       1.167181752918e-10       3.172079742557e-16       1.137842346573e-13       0.000000000000e+00       7.367613435013e-10       7.043997101140e-11       8.505586649746e-15 
   13       1.174801112612e-10       3.043842315357e-16       1.192745165184e-13       0.000000000000e+00       6.493067877829e-10       6.289702237063e-11      -2.257418366429e-14 
   14       1.184522778570e-10       3.151971284923e-16       1.268747567618e-13       0.000000000000e+00       5.765439942014e-10       5.631047399970e-11      -3.808018468663e-14 
   15       1.196322623285e-10       3.376289636373e-16       1.351665686652e-13       0.000000000000e+00       5.152969697717e-10       5.077373469619e-11      -3.911810453554e-14 
   16       1.209603461651e-10       3.710841340114e-16       1.435457809764e-13       0.000000000000e+00       4.632235419230e-10       4.602375390154e-11      -3.059067945997e-14 
   17       1.224263840121e-10       4.221923469625e-16       1.519142410177e-13       0.000000000000e+00       4.185542816649e-10       4.189546786687e-11      -1.835759776777e-14 
   18       1.239822457897e-10       4.958896787237e-16       1.605123998807e-13       0.000000000000e+00       3.797858463105e-10       3.827295508879e-11      -7.624986765018e-15 
   19       1.256394764128e-10       5.919300288068e-16       1.695810660843e-13       0.000000000000e+00       3.462998463658e-10       3.511645671101e-11      -8.588809491566e-16 
   20       1.273769504782e-10       7.077677171487e-16       1.793004978329e-13       0.000000000000e+00       3.168085974263e-10       3.233201230103e-11       6.140679680503e-16 
   21       1.292008662231e-10       8.427983103016e-16       1.896241532042e-13       0.000000000000e+00       2.908488807703e-10       2.986827879881e-11      -2.208162940222e-15 
   22       1.310927240646e-10       9.966726869846e-16       2.003300925299e-13       0.000000000000e+00       2.677987992782e-10       2.764885506049e-11      -7.116114046549e-15 
   23       1.330505692873e-10       1.169158007975e-15       2.109788849458e-13       0.000000000000e+00       2.473414913910e-10       2.565104175170e-11      -1.224149743308e-14 
   24       1.350573896014e-10       1.359977406150e-15       2.210275472142e-13       0.000000000000e+00       2.290044237350e-10       2.384709726599e-11      -1.576016004704e-14 
   25       1.371240639988e-10       1.569676195646e-15       2.302052961507e-13       0.000000000000e+00       2.125718663959e-10       2.222952208392e-11      -1.704109334216e-14 
   26       1.392511786302e-10       1.799265019618e-15       2.383366191873e-13       0.000000000000e+00       1.977462555305e-10       2.077869681181e-11      -1.603215728719e-14 
   27       1.414245389908e-10       2.050800980247e-15       2.453539359906e-13       0.000000000000e+00       1.843496307492e-10       1.946628332285e-11      -1.354581758628e-14 
   28       1.436173064725e-10       2.326655892253e-15       2.512518006586e-13       0.000000000000e+00       1.721509483037e-10       1.825427968838e-11      -1.074028627995e-14 
   29       1.458396557323e-10       2.628276315406e-15       2.560957130401e-13       0.000000000000e+00       1.610878433895e-10       1.714153658938e-11      -8.251356518746e-15 
   30       1.481026113291e-10       2.956806025376e-15       2.600090350246e-13       0.000000000000e+00       1.510414739548e-10       1.612987086093e-11      -6.645682890309e-15 
   31       1.504061823020e-10       3.313318559614e-15       2.631169311194e-13       0.000000000000e+00       1.418068673418e-10       1.521151823936e-11      -6.414015808934e-15 
   32       1.527527597385e-10       3.698732927610e-15       2.653637443442e-13       0.000000000000e+00       1.333362571973e-10       1.437602692329e-11      -7.275747959912e-15 
   33       1.551358908158e-10       4.113851793430e-15       2.666259940833e-13       0.000000000000e+00       1.255696599427e-10       1.360397919618e-11      -8.597286605331e-15 
   34       1.575422964731e-10       4.559431155270e-15       2.667624019251e-13       0.000000000000e+00       1.183983040084e-10       1.287233394172e-11      -9.698971486185e-15 
   35       1.599764159519e-10       5.036378537466e-15       2.656307096288e-13       0.000000000000e+00       1.117854250839e-10       1.218302719482e-11      -1.034769295953e-14 
   36       1.624426839899e-10       5.545615986649e-15       2.630740343366e-13       0.000000000000e+00       1.056779199441e-10       1.154355081808e-11      -1.043000049018e-14 
   37       1.649405447649e-10       6.088010891344e-15       2.589488486368e-13       0.000000000000e+00       9.999624659713e-11       1.095824622938e-11      -9.880209870644e-15 
   38       1.674724654861e-10       6.664329176390e-15       2.532412506101e-13       0.000000000000e+00       9.472567905560e-11       1.042523199808e-11      -8.880136639688e-15 
   39       1.700373405857e-10       7.275259705096e-15       2.459898019332e-13       0.000000000000e+00       8.984945159812e-11       9.937905246539e-12      -7.730195087332e-15 
   40       1.726275086321e-10       7.921421072618e-15       2.372561992663e-13       0.000000000000e+00       8.532100176870e-11       9.485312007142e-12      -6.801764412315e-15 
   41       1.752330823034e-10       8.603404326848e-15       2.271023432257e-13       0.000000000000e+00       8.108017881376e-11       9.055449596865e-12      -6.434815310675e-15 
   42       1.778582071087e-10       9.321928622218e-15       2.155091992226e-13       0.000000000000e+00       7.711446168849e-11       8.647315175187e-12      -6.579821726299e-15 
   43       1.805089936818e-10       1.007772869900e-14       2.024338814074e-13       0.000000000000e+00       7.341329573869e-11       8.262185303909e-12      -7.046902151252e-15 
   44       1.831886838339e-10       1.087151084668e-14       1.878314383875e-13       0.000000000000e+00       6.994972381535e-11       7.900199314959e-12      -7.599891869815e-15 
   45       1.858983514491e-10       1.170391511035e-14       1.716553574527e-13       0.000000000000e+00       6.669000502410e-11       7.560637114593e-12      -8.012373946111e-15 
   46       1.886399913085e-10       1.257539137888e-14       1.538599059003e-13       0.000000000000e+00       6.362897643290e-11       7.243091053807e-12      -8.262398029538e-15 
   47       1.914138222322e-10       1.348628412771e-14       1.343980212754e-13       0.000000000000e+00       6.076304248508e-11       6.946471576806e-12      -8.391174164405e-15 
   48       1.942171064280e-10       1.443686248131e-14       1.132203680717e-13       0.000000000000e+00       5.807950981823e-11       6.668580553848e-12      -8.449825968706e-15 
   49       1.970438954118e-10       1.542731685968e-14       9.027510726830e-14       0.000000000000e+00       5.555591094219e-11       6.406031532308e-12      -8.499957871807e-15 
   50       1.998877876036e-10       1.645778685831e-14       6.551402119468e-14       0.000000000000e+00       5.316676344185e-11       6.155233852796e-12      -8.600212590944e-15 
   51       2.027516730100e-10       1.752846158977e-14       3.891338275527e-14       0.000000000000e+00       5.090757959782e-11       5.915844932211e-12      -8.760325961747e-15 
   52       2.056401944332e-10       1.863950078205e-14       1.045835255058e-14       0.000000000000e+00       4.877620484180e-11       5.688117212970e-12      -8.975581315947e-15 
   53       2.085568572888e-10       1.979100408674e-14      -1.986281436680e-14       0.000000000000e+00       4.676563316335e-11       5.471887219255e-12      -9.239639380630e-15 
   54       2.115039172518e-10       2.098300919539e-14      -5.205869988089e-14       0.000000000000e+00       4.486368069492e-11       5.266545872310e-12      -9.544446233045e-15 
   55       2.144826856007e-10       2.221550428766e-14      -8.613524958060e-14       0.000000000000e+00       4.305669745757e-11       5.071299738791e-12      -9.879793318502e-15 
   56       2.174947914688e-10       2.348847331245e-14      -1.220976634884e-13       0.000000000000e+00       4.134253016575e-11       4.886098780261e-12      -1.023208037643e-14 
   57       2.205410363663e-10       2.480185865620e-14      -1.599488548512e-13       0.000000000000e+00       3.972020792005e-11       4.710887081510e-12      -1.058508397422e-14 
   58       2.236209099669e-10       2.615554650031e-14      -1.996888514867e-13       0.000000000000e+00       3.818602078028e-11       4.545314159878e-12      -1.092017521625e-14 
   59       2.267324940278e-10       2.754936549582e-14      -2.413147503688e-13       0.000000000000e+00       3.673335068151e-11       4.388716615612e-12      -1.121621414272e-14 
   60       2.298723663097e-10       2.898308543818e-14      -2.848206722126e-13       0.000000000000e+00       3.535250234995e-11       4.240099782222e-12      -1.144944412847e-14 
   61       2.330370592610e-10       3.045636526959e-14      -3.301985766835e-13       0.000000000000e+00       3.403339188959e-11       4.098409899043e-12      -1.159907094517e-14 
   62       2.362280360391e-10       3.196858644524e-14      -3.774410245897e-13       0.000000000000e+00       3.277470026301e-11       3.963463530750e-12      -1.166570220938e-14 
   63       2.394476659978e-10       3.351897964241e-14      -4.265389579257e-13       0.000000000000e+00       3.157648371537e-11       3.835195153678e-12      -1.165687831158e-14 
   64       2.426977226598e-10       3.510666925750e-14      -4.774808762103e-13       0.000000000000e+00       3.043742054613e-11       3.713376091757e-12      -1.158182626799e-14 
   65       2.459793369679e-10       3.673067047293e-14      -5.302528183790e-13       0.000000000000e+00       2.935473269671e-11       3.597605384917e-12      -1.145153448949e-14 
   66       2.492929505368e-10       3.838988632412e-14      -5.848383446759e-13       0.000000000000e+00       2.832410733816e-11       3.487300657494e-12      -1.127882755052e-14 
   67       2.526382689044e-10       4.008310476643e-14      -6.412185185466e-13       0.000000000000e+00       2.733961845892e-11       3.381688986640e-12      -1.107844095796e-14 
   68       2.560148024402e-10       4.180910719332e-14      -6.993718781839e-13       0.000000000000e+00       2.639530713482e-11       3.280009849728e-12      -1.086447597427e-14 
   69       2.594237208388e-10       4.356702608073e-14      -7.592743849487e-13       0.000000000000e+00       2.549046944228e-11       3.182192130735e-12      -1.064199809121e-14 
   70       2.628662921414e-10       4.535605487480e-14      -8.208994319205e-13       0.000000000000e+00       2.462530407533e-11       3.088298519073e-12      -1.041386268208e-14 
   71       2.663432971762e-10       4.717534287139e-14      -8.842178352755e-13       0.000000000000e+00       2.379931312085e-11       2.998321927045e-12      -1.018319194590e-14 
   72       2.698549978396e-10       4.902399513354e-14      -9.491978159146e-13       0.000000000000e+00       2.301126606787e-11       2.912181782261e-12      -9.953382670038e-15 
   73       2.734011053775e-10       5.090107240874e-14      -1.015804981091e-12       0.000000000000e+00       2.225916381675e-11       2.829720320063e-12      -9.728113992838e-15 
   74       2.769807486659e-10       5.280559104634e-14      -1.084002306036e-12       0.000000000000e+00       2.154020268846e-11       2.750698875944e-12      -9.511355166209e-15 
   75       2.805924424924e-10       5.473652291493e-14      -1.153750115591e-12       0.000000000000e+00       2.085073843376e-11       2.674794177972e-12      -9.307373318242e-15 
   76       2.842347439331e-10       5.669274995072e-14      -1.225007617303e-12       0.000000000000e+00       2.018718937853e-11       2.601682414659e-12      -9.119970350014e-15 
   77       2.879084297834e-10       5.867291841669e-14      -1.297737864091e-12       0.000000000000e+00       1.954901555416e-11       2.531317332756e-12      -8.950015813243e-15 
   78       2.916146604102e-10       6.067555779334e-14      -1.371903667376e-12       0.000000000000e+00       1.893621996197e-11       2.463696351624e-12      -8.797476153868e-15 
   79       2.953543095569e-10       6.269912279326e-14      -1.447466139109e-12       0.000000000000e+00       1.834844116945e-11       2.398775409875e-12      -8.662137751718e-15 
   80       2.991279467345e-10       6.474199234826e-14      -1.524384705221e-12       0.000000000000e+00       1.778493657721e-11       2.336467057705e-12      -8.543598875891e-15 
   81       3.029358196128e-10       6.680246859637e-14      -1.602617119061e-12       0.000000000000e+00       1.724456568600e-11       2.276638549219e-12      -8.441261640134e-15 
   82       3.067778364112e-10       6.887877586885e-14      -1.682119474836e-12       0.000000000000e+00       1.672577336364e-11       2.219109934761e-12      -8.354323958229e-15 
   83       3.106535482898e-10       7.096905967727e-14      -1.762846221058e-12       0.000000000000e+00       1.622657311204e-11       2.163652153239e-12      -8.281771499373e-15 
   84       3.145624450064e-10       7.307144672325e-14      -1.844749552625e-12       0.000000000000e+00       1.574502888651e-11       2.110042381558e-12      -8.222338544529e-15 
   85       3.185049367750e-10       7.518423857705e-14      -1.927777441848e-12       0.000000000000e+00       1.528082898233e-11       2.058244804348e-12      -8.174400721094e-15 
   86       3.224815036500e-10       7.730574839887e-14      -2.011875304138e-12       0.000000000000e+00       1.483394359919e-11       2.008256453740e-12      -8.136049653828e-15 
   87       3.264923845712e-10       7.943424278328e-14      -2.096986593296e-12       0.000000000000e+00       1.440414125650e-11       1.960051685313e-12      -8.105114041814e-15 
   88       3.305375650190e-10       8.156794177190e-14      -2.183052804510e-12       0.000000000000e+00       1.399098043938e-11       1.913581232723e-12      -8.079151091174e-15 
   89       3.346167646707e-10       8.370501886600e-14      -2.270013477357e-12       0.000000000000e+00       1.359380124465e-11       1.868771262339e-12      -8.055437947773e-15 
   90       3.387294250569e-10       8.584360103915e-14      -2.357806198796e-12       0.000000000000e+00       1.321171702686e-11       1.825522427875e-12      -8.030963129931e-15 
   91       3.428746972169e-10       8.798176874980e-14      -2.446366606175e-12       0.000000000000e+00       1.284360604429e-11       1.783708925019e-12      -8.002417961131e-15 
   92       3.470514293552e-10       9.011755595399e-14      -2.535628390223e-12       0.000000000000e+00       1.248810310498e-11       1.743177546070e-12      -7.966188002731e-15 
   93       3.512585131631e-10       9.224898306079e-14      -2.625524507426e-12       0.000000000000e+00       1.214392284550e-11       1.703785824460e-12      -7.919207500611e-15 
   94       3.554960091793e-10       9.437416144121e-14      -2.715991019217e-12       0.000000000000e+00       1.181090333044e-11       1.665525084200e-12      -7.861688335233e-15 
   95       3.597641686486e-10       9.649120473395e-14      -2.806963838431e-12       0.000000000000e+00       1.148910469502e-11       1.628414235303e-12      -7.794787575577e-15 
   96       3.640630826155e-10       9.859819776164e-14      -2.898377590715e-12       0.000000000000e+00       1.117848774674e-11       1.592461929562e-12      -7.719784270914e-15 
   97       3.683926745033e-10       1.006931969956e-13      -2.990165634131e-12       0.000000000000e+00       1.087891016362e-11       1.557666151759e-12      -7.638082729968e-15 
   98       3.727526926940e-10       1.027742310209e-13      -3.082260078755e-12       0.000000000000e+00       1.059012269251e-11       1.524013810883e-12      -7.551215800075e-15 
   99       3.771427031073e-10       1.048393010009e-13      -3.174591806276e-12       0.000000000000e+00       1.031176534735e-11       1.491480331341e-12      -7.460848146342e-15 
  100       3.815620817800e-10       1.068863811421e-13      -3.267090489595e-12       0.000000000000e+00       1.004336360746e-11       1.460029244169e-12      -7.368779530809e-15 
  101       3.860100074454e-10       1.089134191594e-13      -3.359684612427e-12       0.000000000000e+00       9.784324615818e-12       1.429611778248e-12      -7.276948091606e-15 
  102       3.904854541127e-10       1.109183367402e-13      -3.452301488899e-12       0.000000000000e+00       9.533933377325e-12       1.400166451513e-12      -7.187433622116e-15 
  103       3.949871836462e-10       1.128990300099e-13      -3.544867283150e-12       0.000000000000e+00       9.291348957091e-12       1.371618662172e-12      -7.102460850136e-15 
  104       3.995140021702e-10       1.148534210933e-13      -3.637307592418e-12       0.000000000000e+00       9.055794740357e-12       1.343897717253e-12      -7.023915508924e-15 
  105       4.040655847124e-10       1.167796197300e-13      -3.729549243785e-12       0.000000000000e+00       8.827166671338e-12       1.316991418514e-12      -6.951811036959e-15 
  106       4.086417486418e-10       1.186757844594e-13      -3.821518777815e-12       0.000000000000e+00       8.605500473585e-12       1.290898122528e-12      -6.885619900723e-15 
  107       4.132421953246e-10       1.205400744870e-13      -3.913141932223e-12       0.000000000000e+00       8.390783276441e-12       1.265609747259e-12      -6.824740256965e-15 
