# dimensionless total [l(l+1)/2pi] C_l's
# for l=2 to 3000, i.e. number of multipoles equal to 2999
#
# -> if you prefer output in CAMB/HealPix/LensPix units/order, set 'format' to 'camb' in input file
# -> if you don't want to see such a header, set 'headers' to 'no' in input file
# -> for CMB lensing (phi), these are C_l^phi-phi for the lensing potential.
#    Remember the conversion factors:
#    C_l^dd (deflection) = l(l+1) C_l^phi-phi
#    C_l^gg (shear/convergence) = 1/4 (l(l+1))^2 C_l^phi-phi
#
# 1:l     2:TT                     3:EE                     4:TE                     5:BB                     6:phiphi                 7:TPhi                   8:Ephi               
    2       1.513689351925e-10       4.794100233504e-15       3.799697606525e-13       0.000000000000e+00       8.309211006469e-09       5.059284906448e-10      -2.012726388875e-12 
    3       1.417655606055e-10       6.054377908321e-15       4.281493246523e-13       0.000000000000e+00       5.129976272424e-09       3.573184912696e-10      -1.512268903306e-12 
    4       1.331057126851e-10       5.148396071269e-15       3.998303468656e-13       0.000000000000e+00       3.573532281909e-09       2.695889590590e-10      -9.768248227876e-13 
    5       1.266680255305e-10       3.372319251655e-15       3.391868685359e-13       0.000000000000e+00       2.668833184824e-09       2.123204761023e-10      -5.310462504415e-13 
    6       1.222170593609e-10       1.855044233372e-15       2.715965272580e-13       0.000000000000e+00       2.084757107076e-09       1.723409175962e-10      -2.072655400421e-13 
    7       1.192659277397e-10       9.971268824082e-16       2.117297353453e-13       0.000000000000e+00       1.680694915667e-09       1.430969343754e-10      -5.088698090239e-15 
    8       1.174558358192e-10       6.484320958514e-16       1.659128410364e-13       0.000000000000e+00       1.387248626539e-09       1.209814736290e-10       9.391280474226e-14 
    9       1.164882164154e-10       5.208523802524e-16       1.354228126694e-13       0.000000000000e+00       1.166749564765e-09       1.038437219565e-10       1.170828534359e-13 
   10       1.161156093552e-10       4.388852550226e-16       1.186581135892e-13       0.000000000000e+00       9.966697477390e-10       9.028353571220e-11       9.396212487958e-14 
   11       1.162416763746e-10       3.648915399926e-16       1.125869347448e-13       0.000000000000e+00       8.432755988806e-10       7.968867182721e-11       5.145410834414e-14 
   12       1.167205525500e-10       3.172028633539e-16       1.137832120180e-13       0.000000000000e+00       7.367431296562e-10       7.043877730250e-11       8.506296379792e-15 
   13       1.174825044229e-10       3.043763147534e-16       1.192730847624e-13       0.000000000000e+00       6.492896659250e-10       6.289595144050e-11      -2.257411232453e-14 
   14       1.184546199417e-10       3.151858001724e-16       1.268729117269e-13       0.000000000000e+00       5.765280198439e-10       5.630938311873e-11      -3.808051576522e-14 
   15       1.196345259089e-10       3.376136933925e-16       1.351642696408e-13       0.000000000000e+00       5.152819952430e-10       5.077261785944e-11      -3.911857203829e-14 
   16       1.209626234342e-10       3.710642844321e-16       1.435431729319e-13       0.000000000000e+00       4.632094606541e-10       4.602274867176e-11      -3.059103598199e-14 
   17       1.224286205380e-10       4.221667027900e-16       1.519113014916e-13       0.000000000000e+00       4.185410719539e-10       4.189462185374e-11      -1.835770271847e-14 
   18       1.239844893910e-10       4.958577783536e-16       1.605092176391e-13       0.000000000000e+00       3.797734538272e-10       3.827212983633e-11      -7.624785217142e-15 
   19       1.256417527455e-10       5.918910325451e-16       1.695776802514e-13       0.000000000000e+00       3.462882027438e-10       3.511560570450e-11      -8.584301232482e-16 
   20       1.273791952307e-10       7.077199426890e-16       1.792968169217e-13       0.000000000000e+00       3.167976506711e-10       3.233126557124e-11       6.145905702527e-16 
   21       1.292030589605e-10       8.427403291733e-16       1.896201680048e-13       0.000000000000e+00       2.908385878212e-10       2.986768129996e-11      -2.207713926472e-15 
   22       1.310949260459e-10       9.966036813903e-16       2.003259435098e-13       0.000000000000e+00       2.677891308930e-10       2.764829269220e-11      -7.115789991818e-15 
   23       1.330528189104e-10       1.169077110755e-15       2.109747171979e-13       0.000000000000e+00       2.473324126966e-10       2.565045089268e-11      -1.224129985998e-14 
   24       1.350596684818e-10       1.359883422831e-15       2.210234518428e-13       0.000000000000e+00       2.289958935836e-10       2.384652817797e-11      -1.576005708910e-14 
   25       1.371263462139e-10       1.569567486288e-15       2.302013034958e-13       0.000000000000e+00       2.125638422971e-10       2.222902039599e-11      -1.704106176189e-14 
   26       1.392534487472e-10       1.799139556091e-15       2.383327070412e-13       0.000000000000e+00       1.977386995808e-10       2.077826694275e-11      -1.603219166358e-14 
   27       1.414267984649e-10       2.050657061695e-15       2.453501264066e-13       0.000000000000e+00       1.843425082874e-10       1.946592278325e-11      -1.354589230030e-14 
   28       1.436195730734e-10       2.326492314059e-15       2.512481788015e-13       0.000000000000e+00       1.721442298863e-10       1.825398618019e-11      -1.074034735115e-14 
   29       1.458419402760e-10       2.628091712128e-15       2.560923279971e-13       0.000000000000e+00       1.610814991763e-10       1.714128995408e-11      -8.251355006039e-15 
   30       1.481049071671e-10       2.956598605032e-15       2.600058559392e-13       0.000000000000e+00       1.510354749187e-10       1.612962365152e-11      -6.645589522266e-15 
   31       1.504084651782e-10       3.313086170411e-15       2.631138589399e-13       0.000000000000e+00       1.418011881082e-10       1.521120434910e-11      -6.413826492823e-15 
   32       1.527550059680e-10       3.698473731607e-15       2.653607401802e-13       0.000000000000e+00       1.333308741054e-10       1.437562159126e-11      -7.275483967274e-15 
   33       1.551380840735e-10       4.113564573304e-15       2.666231370510e-13       0.000000000000e+00       1.255645526889e-10       1.360352844870e-11      -8.596998849579e-15 
   34       1.575444294479e-10       4.559115272250e-15       2.667598797716e-13       0.000000000000e+00       1.183934572059e-10       1.287194731432e-11      -9.698733480658e-15 
   35       1.599784900295e-10       5.036033181939e-15       2.656286728098e-13       0.000000000000e+00       1.117808241394e-10       1.218278460901e-11      -1.034754827779e-14 
   36       1.624447104255e-10       5.545239882641e-15       2.630725376741e-13       0.000000000000e+00       1.056735509545e-10       1.154346431188e-11      -1.042993885406e-14 
   37       1.649425432295e-10       6.087602279004e-15       2.589478588404e-13       0.000000000000e+00       9.999209716170e-11       1.095826084516e-11      -9.880169210403e-15 
   38       1.674744514445e-10       6.663886138647e-15       2.532407621861e-13       0.000000000000e+00       9.472173658102e-11       1.042528750381e-11      -8.880056201460e-15 
   39       1.700393200306e-10       7.274780258795e-15       2.459898806434e-13       0.000000000000e+00       8.984570346683e-11       9.937956799276e-12      -7.730034260863e-15 
   40       1.726294755927e-10       7.920903167479e-15       2.372569978566e-13       0.000000000000e+00       8.531743628979e-11       9.485334955190e-12      -6.801508379254e-15 
   41       1.752350202064e-10       8.602846038558e-15       2.271040874445e-13       0.000000000000e+00       8.107678570783e-11       9.055440077753e-12      -6.434475142815e-15 
   42       1.778601036000e-10       9.321329003692e-15       2.155120706824e-13       0.000000000000e+00       7.711123078254e-11       8.647275656474e-12      -6.579414747400e-15 
   43       1.805108460889e-10       1.007708818787e-14       2.024379716978e-13       0.000000000000e+00       7.341021701475e-11       8.262120838694e-12      -7.046446249881e-15 
   44       1.831905010958e-10       1.087083151043e-14       1.878367299002e-13       0.000000000000e+00       6.994678801005e-11       7.900117930701e-12      -7.599405160395e-15 
   45       1.859001528622e-10       1.170320055920e-14       1.716617296529e-13       0.000000000000e+00       6.668720391747e-11       7.560549213110e-12      -8.011873902485e-15 
   46       1.886417943274e-10       1.257464553202e-14       1.538672296323e-13       0.000000000000e+00       6.362630197834e-11       7.243005446254e-12      -8.261898915766e-15 
   47       1.914156381288e-10       1.348551080615e-14       1.344061894590e-13       0.000000000000e+00       6.076048683516e-11       6.946393910883e-12      -8.390685610366e-15 
   48       1.942189388821e-10       1.443606531017e-14       1.132293025279e-13       0.000000000000e+00       5.807706570779e-11       6.668512624471e-12      -8.449351944275e-15 
   49       1.970457390212e-10       1.542649916400e-14       9.028476596173e-14       0.000000000000e+00       5.555357209972e-11       6.405970553736e-12      -8.499495603564e-15 
   50       1.998896288449e-10       1.645695157558e-14       6.552439903173e-14       0.000000000000e+00       5.316452470518e-11       6.155173017760e-12      -8.599753411759e-15 
   51       2.027534995250e-10       1.752761125314e-14       3.892449002479e-14       0.000000000000e+00       5.090543598213e-11       5.915778333291e-12      -8.759862710852e-15 
   52       2.056419981102e-10       1.863863744076e-14       1.047021037248e-14       0.000000000000e+00       4.877415141989e-11       5.688041519184e-12      -8.975110867240e-15 
   53       2.085586350480e-10       1.979012919964e-14      -1.985017217262e-14       0.000000000000e+00       4.676366525781e-11       5.471802153850e-12      -9.239163371374e-15 
   54       2.115056718697e-10       2.098212351905e-14      -5.204522483240e-14       0.000000000000e+00       4.486179408344e-11       5.266454714395e-12      -9.543971828759e-15 
   55       2.144844253791e-10       2.221460794646e-14      -8.612088278497e-14       0.000000000000e+00       4.305488844989e-11       5.071208973015e-12      -9.879332623889e-15 
   56       2.174965260168e-10       2.348756648001e-14      -1.220823605543e-13       0.000000000000e+00       4.134079522869e-11       4.886014888221e-12      -1.023164530760e-14 
   57       2.205427753717e-10       2.480094176784e-14      -1.599325951096e-13       0.000000000000e+00       3.971854366508e-11       4.710815523120e-12      -1.058468460551e-14 
   58       2.236226630683e-10       2.615462029316e-14      -1.996716415038e-13       0.000000000000e+00       3.818442409004e-11       4.545259158242e-12      -1.091981940084e-14 
   59       2.267342706794e-10       2.754843105087e-14      -2.412966276115e-13       0.000000000000e+00       3.673181884377e-11       4.388680931609e-12      -1.121590711526e-14 
   60       2.298741756377e-10       2.898214422416e-14      -2.848017088668e-13       0.000000000000e+00       3.535103319923e-11       4.240084478803e-12      -1.144918808980e-14 
   61       2.330389095555e-10       3.045541909422e-14      -3.301788750645e-13       0.000000000000e+00       3.403198379103e-11       4.098414423559e-12      -1.159886518414e-14 
   62       2.362299330705e-10       3.196763710027e-14      -3.774206847795e-13       0.000000000000e+00       3.277335156458e-11       3.963486858075e-12      -1.166554501776e-14 
   63       2.394496122295e-10       3.351802878914e-14      -4.265180671916e-13       0.000000000000e+00       3.157519262534e-11       3.835236089471e-12      -1.165676747832e-14 
   64       2.426997167765e-10       3.510571839958e-14      -4.774595063174e-13       0.000000000000e+00       3.043618516741e-11       3.713433268538e-12      -1.158175905356e-14 
   65       2.459813733848e-10       3.672972092808e-14      -5.302310227828e-13       0.000000000000e+00       2.935355106363e-11       3.597677258275e-12      -1.145150759980e-14 
   66       2.492950188894e-10       3.838893919467e-14      -5.848161555966e-13       0.000000000000e+00       2.832297745549e-11       3.487385502423e-12      -1.127883711051e-14 
   67       2.526403535192e-10       4.008216090877e-14      -6.411959439233e-13       0.000000000000e+00       2.733853834320e-11       3.381784894000e-12      -1.107848248486e-14 
   68       2.560168832715e-10       4.180816724888e-14      -6.993489049036e-13       0.000000000000e+00       2.639427483257e-11       3.280114722813e-12      -1.086454449129e-14 
   69       2.594257791925e-10       4.356609070871e-14      -7.592510026377e-13       0.000000000000e+00       2.548948296803e-11       3.182303681867e-12      -1.064208869647e-14 
   70       2.628683125514e-10       4.535512482219e-14      -8.208756401447e-13       0.000000000000e+00       2.462436141761e-11       3.088414266406e-12      -1.041397075430e-14 
   71       2.663452679005e-10       4.717441898439e-14      -8.841936447604e-13       0.000000000000e+00       2.379841227395e-11       2.998439191521e-12      -1.018331322068e-14 
   72       2.698569113748e-10       4.902307836943e-14      -9.491732498095e-13       0.000000000000e+00       2.301040506515e-11       2.912297684695e-12      -9.953513319390e-15 
   73       2.734029589922e-10       5.090016384824e-14      -1.015780076277e-12       0.000000000000e+00       2.225834076568e-11       2.829831778360e-12      -9.728250707947e-15 
   74       2.769825449532e-10       5.280469190646e-14      -1.083977114482e-12       0.000000000000e+00       2.153941580726e-11       2.750802602439e-12      -9.511495243439e-15 
   75       2.805941899408e-10       5.473563456224e-14      -1.153724705747e-12       0.000000000000e+00       2.084998608978e-11       2.674886676903e-12      -9.307514748404e-15 
   76       2.842364562919e-10       5.669187386971e-14      -1.224982070368e-12       0.000000000000e+00       2.018647008712e-11       2.601760144824e-12      -9.120111813529e-15 
   77       2.879101215141e-10       5.867205603275e-14      -1.297712253715e-12       0.000000000000e+00       1.954832784720e-11       2.531377400252e-12      -8.950156366025e-15 
   78       2.916163453691e-10       6.067471041528e-14      -1.371878052965e-12       0.000000000000e+00       1.893556236591e-11       2.463736769846e-12      -8.797615171727e-15 
   79       2.953560008328e-10       6.269829159855e-14      -1.447440563989e-12       0.000000000000e+00       1.834781222312e-11       2.398795206494e-12      -8.662274968342e-15 
   80       2.991296564802e-10       6.474117836775e-14      -1.524359194734e-12       0.000000000000e+00       1.778433485051e-11       2.336466385149e-12      -8.543734422074e-15 
   81       3.029375588702e-10       6.680167269856e-14      -1.602591678595e-12       0.000000000000e+00       1.724398979930e-11       2.276618798673e-12      -8.441396084265e-15 
   82       3.067796149300e-10       6.887799874373e-14      -1.682094087805e-12       0.000000000000e+00       1.672522200813e-11       2.219073853677e-12      -8.354458348028e-15 
   83       3.106553743405e-10       7.096830181967e-14      -1.762820846807e-12       0.000000000000e+00       1.622604507076e-11       2.163603966361e-12      -8.281907404878e-15 
   84       3.145643251898e-10       7.307070845644e-14      -1.844724130582e-12       0.000000000000e+00       1.574452303429e-11       2.109987536159e-12      -8.222477904923e-15 
   85       3.185068758369e-10       7.518352020564e-14      -1.927751915697e-12       0.000000000000e+00       1.528034421605e-11       2.058188508849e-12      -8.174545062928e-15 
   86       3.224835042803e-10       7.730505025310e-14      -2.011849629190e-12       0.000000000000e+00       1.483347882758e-11       2.008203228424e-12      -8.136199835444e-15 
   87       3.264944471932e-10       7.943356522475e-14      -2.096960737901e-12       0.000000000000e+00       1.440369541141e-11       1.960005271734e-12      -8.105270183894e-15 
   88       3.305396875729e-10       8.156728519954e-14      -2.183026751510e-12       0.000000000000e+00       1.399055248742e-11       1.913544500257e-12      -8.079312505214e-15 
   89       3.346189423908e-10       8.370438372224e-14      -2.269987225588e-12       0.000000000000e+00       1.359339019937e-11       1.868746111868e-12      -8.055603062498e-15 
   90       3.387316502422e-10       8.584298781632e-14      -2.357779764631e-12       0.000000000000e+00       1.321132196135e-11       1.825509692608e-12      -8.031129415639e-15 
   91       3.428769589959e-10       8.798117799678e-14      -2.446340025109e-12       0.000000000000e+00       1.284322610417e-11       1.783708268460e-12      -8.002581851977e-15 
   92       3.470537134442e-10       9.011698828305e-14      -2.535601718510e-12       0.000000000000e+00       1.248773752192e-11       1.743187357114e-12      -7.966344816937e-15 
   93       3.512608027392e-10       9.224843915558e-14      -2.625497821881e-12       0.000000000000e+00       1.214357093319e-11       1.703803393916e-12      -7.919351671900e-15 
   94       3.554982893012e-10       9.437364206785e-14      -2.715964411140e-12       0.000000000000e+00       1.181056442431e-11       1.665547680222e-12      -7.861814635918e-15 
   95       3.597664276541e-10       9.649071074991e-14      -2.806937412605e-12       0.000000000000e+00       1.148877814051e-11       1.628439410447e-12      -7.794891494008e-15 
   96       3.640653124546e-10       9.859773012396e-14      -2.898351466216e-12       0.000000000000e+00       1.117817290500e-11       1.592487556626e-12      -7.719862091147e-15 
   97       3.683948710814e-10       1.006927567694e-13      -2.990139945153e-12       0.000000000000e+00       1.087860641737e-11       1.557690460673e-12      -7.638131613662e-15 
   98       3.727548562230e-10       1.027738193881e-13      -3.082234975454e-12       0.000000000000e+00       1.058982945215e-11       1.524035426630e-12      -7.551233870627e-15 
   99       3.771448384668e-10       1.048389192690e-13      -3.174567455633e-12       0.000000000000e+00       1.031148205722e-11       1.491498312922e-12      -7.460834575254e-15 
  100       3.815641988874e-10       1.068860307538e-13      -3.267067076300e-12       0.000000000000e+00       1.004308975233e-11       1.460043124612e-12      -7.368734626295e-15 
  101       3.860121216347e-10       1.089131017014e-13      -3.359662339775e-12       0.000000000000e+00       9.784059727562e-12       1.429621605652e-12      -7.276873389428e-15 
  102       3.904875865234e-10       1.109180539535e-13      -3.452280579713e-12       0.000000000000e+00       9.533677041805e-12       1.400172831137e-12      -7.187331978658e-15 
  103       3.949893616205e-10       1.128987837995e-13      -3.544847980715e-12       0.000000000000e+00       9.291100821242e-12       1.371622799558e-12      -7.102336537709e-15 
  104       3.995162579590e-10       1.148532134767e-13      -3.637290152928e-12       0.000000000000e+00       9.055554507360e-12       1.343901323534e-12      -7.023773986168e-15 
  105       4.040679488265e-10       1.167794525942e-13      -3.729533901974e-12       0.000000000000e+00       8.826934057803e-12       1.316996178788e-12      -6.951657689696e-15 
  106       4.086442478485e-10       1.186756594836e-13      -3.821505735797e-12       0.000000000000e+00       8.605275199943e-12       1.290905543805e-12      -6.885459676800e-15 
  107       4.132448522707e-10       1.205399931245e-13      -3.913131356445e-12       0.000000000000e+00       8.390565069053e-12       1.265621139522e-12      -6.824577614475e-15 
