# dimensionless total lensed [l(l+1)/2pi] C_l's
# for l=2 to 2500, i.e. number of multipoles equal to 2499
#
# -> if you prefer output in CAMB/HealPix/LensPix units/order, set 'format' to 'camb' in input file
# -> if you don't want to see such a header, set 'headers' to 'no' in input file
# -> for CMB lensing (phi), these are C_l^phi-phi for the lensing potential.
#    Remember the conversion factors:
#    C_l^dd (deflection) = l(l+1) C_l^phi-phi
#    C_l^gg (shear/convergence) = 1/4 (l(l+1))^2 C_l^phi-phi
#
# 1:l     2:TT                     3:EE                     4:TE                     5:BB                     6:phiphi                 7:TPhi                   8:Ephi               
    2       1.513642710937e-10       4.794162456005e-15       3.799568300027e-13       2.253197607423e-19       8.308931276537e-09       5.059112926857e-10      -2.012657908127e-12 
    3       1.417617069248e-10       6.054622679021e-15       4.281347410655e-13       4.507394409897e-19       5.129803810380e-09       3.573063575374e-10      -1.512217449761e-12 
    4       1.331027950410e-10       5.148972378737e-15       3.998166916597e-13       7.514523473060e-19       3.573412313019e-09       2.695798105847e-10      -9.767915873073e-13 
    5       1.266661206698e-10       3.373332120012e-15       3.391752076055e-13       1.127585930149e-18       2.668743731788e-09       2.123132665494e-10      -5.310281825433e-13 
    6       1.222162539678e-10       1.856560440433e-15       2.715870474976e-13       1.579294677771e-18       2.084687297726e-09       1.723350686157e-10      -2.072584889441e-13 
    7       1.192663163521e-10       9.991997644325e-16       2.117221062318e-13       2.106757122486e-18       1.680638593510e-09       1.430920922796e-10      -5.088525864052e-15 
    8       1.174575255084e-10       6.511203062616e-16       1.659064958926e-13       2.710172460469e-18       1.387202068600e-09       1.209773844402e-10       9.390960964155e-14 
    9       1.164913096967e-10       5.242246028069e-16       1.354171186108e-13       3.389756887929e-18       1.166710377369e-09       1.038402017309e-10       1.170788714688e-13 
   10       1.161202275903e-10       4.430163881949e-16       1.186524672553e-13       4.145739763599e-18       9.966362838245e-10       9.028047416559e-11       9.395892967277e-14 
   11       1.162479262508e-10       3.698580185915e-16       1.125808102602e-13       4.978359710616e-18       8.432472010878e-10       7.968598162676e-11       5.145235820006e-14 
   12       1.167285526789e-10       3.230807619008e-16       1.137761733509e-13       5.887860770024e-18       7.367183328760e-10       7.043640597326e-11       8.506007233540e-15 
   13       1.174923519952e-10       3.112416820041e-16       1.192647692751e-13       6.874488713349e-18       6.492678243760e-10       6.289382081840e-11      -2.257334273074e-14 
   14       1.184664320821e-10       3.231153271673e-16       1.268630034947e-13       7.938487613155e-18       5.765086363573e-10       5.630746876448e-11      -3.807921837854e-14 
   15       1.196484019129e-10       3.466847299004e-16       1.351524710485e-13       9.080096758616e-18       5.152646802050e-10       5.077090663748e-11      -3.911724149664e-14 
   16       1.209786691961e-10       3.813544364082e-16       1.435291815763e-13       1.029954798833e-17       4.631939037495e-10       4.602120900284e-11      -3.058999734764e-14 
   17       1.224469262034e-10       4.337535577457e-16       1.518947892210e-13       1.159706349550e-17       4.185270227648e-10       4.189320817227e-11      -1.835707946643e-14 
   18       1.240051532863e-10       5.088189468093e-16       1.604898197899e-13       1.297285393345e-17       3.797607127751e-10       3.827083241713e-11      -7.624526926906e-15 
   19       1.256648716654e-10       6.063042785523e-16       1.695549991777e-13       1.442711829690e-17       3.462765913204e-10       3.511442052237e-11      -8.584026447064e-16 
   20       1.274048598687e-10       7.236632197165e-16       1.792704257263e-13       1.596004097507e-17       3.167870338125e-10       3.233018134086e-11       6.145679326862e-16 
   21       1.292313557607e-10       8.602916865324e-16       1.895896164161e-13       1.757179481928e-17       2.908288461550e-10       2.986668150249e-11      -2.207639372686e-15 
   22       1.311259397418e-10       1.015841209561e-15       2.002907640787e-13       1.926253789311e-17       2.677801661037e-10       2.764735978880e-11      -7.115546095775e-15 
   23       1.330866352224e-10       1.190078860176e-15       2.109344349370e-13       2.103241806803e-17       2.473241372024e-10       2.564957960057e-11      -1.224087941514e-14 
   24       1.350963751416e-10       1.382727345091e-15       2.209775895982e-13       2.288156971989e-17       2.289882357662e-10       2.384572732424e-11      -1.575951666877e-14 
   25       1.371660257290e-10       1.594331387303e-15       2.301493742966e-13       2.481012010051e-17       2.125567378322e-10       2.222828479416e-11      -1.704047918687e-14 
   26       1.392961781292e-10       1.825901029571e-15       2.382742123415e-13       2.681818535254e-17       1.977320941935e-10       2.077757223972e-11      -1.603164552656e-14 
   27       1.414726591598e-10       2.079493369267e-15       2.452845525380e-13       2.890587655390e-17       1.843363537489e-10       1.946525628297e-11      -1.354543252723e-14 
   28       1.436686535514e-10       2.357480307569e-15       2.511749967273e-13       3.107329700546e-17       1.721384858027e-10       1.825335550212e-11      -1.073998358087e-14 
   29       1.458943257072e-10       2.661307836986e-15       2.560109958196e-13       3.332055171143e-17       1.610761272562e-10       1.714070317313e-11      -8.251075727913e-15 
   30       1.481606756539e-10       2.992118856565e-15       2.599158206090e-13       3.564773970267e-17       1.510304408498e-10       1.612908223404e-11      -6.645365047826e-15 
   31       1.504676880781e-10       3.350986037098e-15       2.630145587450e-13       3.805495399686e-17       1.417964644567e-10       1.521070290430e-11      -6.413611390235e-15 
   32       1.528177530972e-10       3.738828163865e-15       2.652516110426e-13       4.054229301401e-17       1.333264350673e-10       1.437515305047e-11      -7.275241516651e-15 
   33       1.552044259557e-10       4.156447932817e-15       2.665036167508e-13       4.310985343135e-17       1.255603745176e-10       1.360308586222e-11      -8.596712259946e-15 
   34       1.576144374654e-10       4.604601281741e-15       2.666294119384e-13       4.575772871232e-17       1.183895198510e-10       1.287152446032e-11      -9.698407636753e-15 
   35       1.600522333496e-10       5.084194905908e-15       2.654867127946e-13       4.848601397057e-17       1.117771087948e-10       1.218237718923e-11      -1.034719673115e-14 
   36       1.625222550601e-10       5.596149685962e-15       2.629185576149e-13       5.129480311003e-17       1.056700405952e-10       1.154307086202e-11      -1.042958065632e-14 
   37       1.650239519600e-10       6.141331778566e-15       2.587813518064e-13       5.418418663069e-17       9.998877743195e-11       1.095788272983e-11      -9.879827286714e-15 
   38       1.675597838068e-10       6.720506162422e-15       2.530612439732e-13       5.715424776791e-17       9.471859362582e-11       1.042492609248e-11      -8.879747534345e-15 
   39       1.701286322590e-10       7.334360798520e-15       2.457968935136e-13       6.020506532972e-17       8.984272400294e-11       9.937612555071e-12      -7.729765402702e-15 
   40       1.727228205478e-10       7.983513328375e-15       2.370501151571e-13       6.333671487778e-17       8.531460860674e-11       9.485007266523e-12      -6.801272950501e-15 
   41       1.753324473121e-10       8.668553985392e-15       2.268829192890e-13       6.654926496955e-17       8.107410012350e-11       9.055127338288e-12      -6.434254821385e-15 
   42       1.779616588141e-10       9.390201896321e-15       2.152762727536e-13       6.984276414070e-17       7.710867803946e-11       8.646976209920e-12      -6.579192484186e-15 
   43       1.806165718511e-10       1.014919212258e-14       2.021872522796e-13       7.321724987611e-17       7.340778821213e-11       8.261833324668e-12      -7.046210968065e-15 
   44       1.833004362678e-10       1.094623146292e-14       1.875708563880e-13       7.667275196566e-17       6.994447515346e-11       7.899841405456e-12      -7.599153235541e-15 
   45       1.860143329699e-10       1.178196030826e-14       1.713805351182e-13       8.020928796377e-17       6.668500014619e-11       7.560283164233e-12      -8.011608897365e-15 
   46       1.887602528153e-10       1.265682752083e-14       1.535706189573e-13       8.382684831588e-17       6.362420060802e-11       7.242749431621e-12      -8.261625243474e-15 
   47       1.915384069063e-10       1.357117604564e-14       1.340941462129e-13       8.752540652083e-17       6.075848130530e-11       6.946147475379e-12      -8.390406608188e-15 
   48       1.943460486123e-10       1.452527329710e-14       1.129018962804e-13       9.130492273215e-17       5.807514988661e-11       6.668275323236e-12      -8.449069611238e-15 
   49       1.971772194277e-10       1.551930779698e-14       8.994215984273e-14       9.516534335001e-17       5.555174061169e-11       6.405741977252e-12      -8.499210322932e-15 
   50       2.000255086979e-10       1.655341704850e-14       6.516685534283e-14       9.910660061305e-17       5.316277303175e-11       6.154952815424e-12      -8.599464006608e-15 
   51       2.028938055199e-10       1.762778787823e-14       3.855236880594e-14       1.031286121901e-16       5.090375975728e-11       5.915566227671e-12      -8.759567640409e-15 
   52       2.057867545850e-10       1.874257751947e-14       1.008397352906e-14       1.072312807721e-16       4.877254635140e-11       5.687837330255e-12      -8.974808566074e-15 
   53       2.087078640146e-10       1.989788290938e-14      -2.024995457258e-14       1.114144936645e-16       4.676212728955e-11       5.471605828033e-12      -9.238852268799e-15 
   54       2.116593930477e-10       2.109373879698e-14      -5.245786811681e-14       1.156781223786e-16       4.486031956845e-11       5.266266355284e-12      -9.543650369564e-15 
   55       2.146426563830e-10       2.233013039323e-14      -8.654558275541e-14       1.200220319204e-16       4.305347419940e-11       5.071028802345e-12      -9.878999379826e-15 
   56       2.176592830403e-10       2.360703933584e-14      -1.225181938938e-13       1.244461122931e-16       4.133943812741e-11       4.885842973382e-12      -1.023129938455e-14 
   57       2.207100735020e-10       2.492440582905e-14      -1.603785155319e-13       1.289502541056e-16       3.971724063156e-11       4.710651683094e-12      -1.058432583073e-14 
   58       2.237945164688e-10       2.628211380514e-14      -2.001264742776e-13       1.335343395319e-16       3.818317216817e-11       4.545102934839e-12      -1.091944843193e-14 
   59       2.269106927797e-10       2.767998959902e-14      -2.417590640050e-13       1.381982422810e-16       3.673061529991e-11       4.388531559612e-12      -1.121552555394e-14 
   60       2.300551793324e-10       2.911780062269e-14      -2.852703005133e-13       1.429418275662e-16       3.534987562501e-11       4.239940855022e-12      -1.144879860045e-14 
   61       2.332245069421e-10       3.059520338450e-14      -3.306520327854e-13       1.477649693373e-16       3.403087011624e-11       4.098275186047e-12      -1.159847135004e-14 
   62       2.364201336684e-10       3.211157691118e-14      -3.778966921308e-13       1.526676065644e-16       3.277227976411e-11       3.963350827208e-12      -1.166515033071e-14 
   63       2.396444223900e-10       3.366614941334e-14      -4.269950824660e-13       1.576496995908e-16       3.157416067303e-11       3.835102426819e-12      -1.165637500794e-14 
   64       2.428991395239e-10       3.525804276665e-14      -4.779355603639e-13       1.627112144935e-16       3.043519108208e-11       3.713301534040e-12      -1.158137136301e-14 
   65       2.461854082513e-10       3.688626957912e-14      -5.307040168910e-13       1.678521236002e-16       2.935259295756e-11       3.597547469844e-12      -1.145112665789e-14 
   66       2.495036617428e-10       3.854973025835e-14      -5.852838594453e-13       1.730724060070e-16       2.832205358563e-11       3.487258197994e-12      -1.127846420007e-14 
   67       2.528535963840e-10       4.024721007876e-14      -6.416559935942e-13       1.783720480956e-16       2.733764716490e-11       3.381661196016e-12      -1.107811810745e-14 
   68       2.562347139120e-10       4.197748789719e-14      -6.997987983207e-13       1.837510517534e-16       2.639341500067e-11       3.279996242701e-12      -1.086418841593e-14 
   69       2.596481799402e-10       4.373969443531e-14      -7.596880865358e-13       1.892094598105e-16       2.548865316150e-11       3.182191901408e-12      -1.064174048250e-14 
   70       2.630952597218e-10       4.553302165968e-14      -8.212971039007e-13       1.947473367104e-16       2.462356030940e-11       3.088310340109e-12      -1.041362989003e-14 
   71       2.665767314157e-10       4.735661748095e-14      -8.845965167082e-13       2.003647619644e-16       2.379763855415e-11       2.998343900373e-12      -1.018297912295e-14 
   72       2.700928543729e-10       4.920958567650e-14      -9.495543935515e-13       2.060618308667e-16       2.300965746538e-11       2.912211388204e-12      -9.953185333288e-15 
   73       2.736433374240e-10       5.109098581321e-14      -1.016136186994e-12       2.118386552084e-16       2.225761808465e-11       2.829754364866e-12      -9.727928106571e-15 
   74       2.772273071666e-10       5.299983317013e-14      -1.084304715237e-12       2.176953639920e-16       2.153871693756e-11       2.750733437722e-12      -9.511177227826e-15 
   75       2.808432762522e-10       5.493509866118e-14      -1.154020143792e-12       2.236321041458e-16       2.084931004580e-11       2.674824551064e-12      -9.307200447534e-15 
   76       2.844897995016e-10       5.689566334893e-14      -1.225241516775e-12       2.296490316046e-16       2.018581600297e-11       2.601703343078e-12      -9.119800317584e-15 
   77       2.881676504827e-10       5.888017258053e-14      -1.297931713712e-12       2.357462810937e-16       1.954769487538e-11       2.531324175308e-12      -8.949846866127e-15 
   78       2.918779860703e-10       6.088715498872e-14      -1.372053367525e-12       2.419239921070e-16       1.893494965919e-11       2.463685483157e-12      -8.797307012907e-15 
   79       2.956216765062e-10       6.291506454903e-14      -1.447567408325e-12       2.481823185610e-16       1.834721894665e-11       2.398744351215e-12      -8.661967671855e-15 
   80       2.993992877904e-10       6.496227957128e-14      -1.524433076852e-12       2.545214293109e-16       1.778376019443e-11       2.336414609961e-12      -8.543427708520e-15 
   81       3.032110640735e-10       6.702710169115e-14      -1.602607937924e-12       2.609415086684e-16       1.724343299201e-11       2.276564932466e-12      -8.441089897487e-15 
   82       3.070569100475e-10       6.910775486177e-14      -1.682047893882e-12       2.674427569177e-16       1.672468232997e-11       2.219016931090e-12      -8.354152879800e-15 
   83       3.109363733381e-10       7.120238434525e-14      -1.762707198033e-12       2.740253908329e-16       1.622552186842e-11       2.163543254182e-12      -8.281603120383e-15 
   84       3.148489398153e-10       7.330911668900e-14      -1.844537856448e-12       2.806896410843e-16       1.574401571902e-11       2.109922543376e-12      -8.222175499969e-15 
   85       3.187950143451e-10       7.542625328768e-14      -1.927487689941e-12       2.874357428311e-16       1.527985220974e-11       2.058118942659e-12      -8.174245201665e-15 
   86       3.227750710979e-10       7.755210721001e-14      -2.011501973965e-12       2.942639445097e-16       1.483300155340e-11       2.008128996859e-12      -8.135903072468e-15 
   87       3.267893429176e-10       7.968494508327e-14      -2.096524024816e-12       3.011745112631e-16       1.440323230040e-11       1.959926503261e-12      -8.104976951794e-15 
   88       3.308378089731e-10       8.182298710987e-14      -2.182495202798e-12       3.081677254054e-16       1.399010298553e-11       1.913461563944e-12      -8.079023101750e-15 
   89       3.349201824083e-10       8.396440708382e-14      -2.269354915391e-12       3.152438868862e-16       1.359295377467e-11       1.868659638121e-12      -8.055317637401e-15 
   90       3.390358979936e-10       8.610733240727e-14      -2.357040620413e-12       3.224033137559e-16       1.321089811149e-11       1.825420594482e-12      -8.030847957047e-15 
   91       3.431840997766e-10       8.824984410699e-14      -2.445487829189e-12       3.296463426293e-16       1.284281436424e-11       1.783617763532e-12      -8.002304172487e-15 
   92       3.473636287324e-10       9.038997685092e-14      -2.534630109717e-12       3.369733291509e-16       1.248733747244e-11       1.743096989932e-12      -7.966070539297e-15 
   93       3.515733698105e-10       9.252575218245e-14      -2.624400302872e-12       3.443846588539e-16       1.214318219750e-11       1.703714966957e-12      -7.919080258624e-15 
   94       3.558133796031e-10       9.465528390518e-14      -2.714734373399e-12       3.518807805969e-16       1.181018663129e-11       1.665462893389e-12      -7.861545559080e-15 
   95       3.600839062349e-10       9.677668865232e-14      -2.805568146657e-12       3.594621790387e-16       1.148841091723e-11       1.628359749041e-12      -7.794624285359e-15 
   96       3.643850377628e-10       9.888805454731e-14      -2.896836166739e-12       3.671293652903e-16       1.117781587997e-11       1.592414266789e-12      -7.719596350024e-15 
   97       3.687166947599e-10       1.009874416763e-13      -2.988471716286e-12       3.748828775228e-16       1.087825922398e-11       1.557624524133e-12      -7.637867015142e-15 
   98       3.730786229001e-10       1.030728825607e-13      -3.080406836307e-12       3.827232815741e-16       1.058949173217e-11       1.523977534757e-12      -7.550970173911e-15 
   99       3.774703855421e-10       1.051423826295e-13      -3.172572345994e-12       3.906511715566e-16       1.031115346448e-11       1.491448840088e-12      -7.460571632295e-15 
  100       3.818913563135e-10       1.071939206921e-13      -3.264897862539e-12       3.986671704643e-16       1.004276995646e-11       1.460002100855e-12      -7.368472390648e-15 
  101       3.863407116949e-10       1.092254494103e-13      -3.357311820950e-12       4.067719307799e-16       9.783748417939e-12       1.429588688649e-12      -7.276611925349e-15 
  102       3.908174236044e-10       1.112348957712e-13      -3.449741493873e-12       4.149661350824e-16       9.533373931562e-12       1.400147277483e-12      -7.187071470431e-15 
  103       3.953202519813e-10       1.132201615596e-13      -3.542113011402e-12       4.232504966540e-16       9.290805651428e-12       1.371603435349e-12      -7.102077299213e-15 
  104       3.998480002288e-10       1.151791749156e-13      -3.634351934530e-12       4.316257366999e-16       9.055267044806e-12       1.343886610421e-12      -7.023516441824e-15 
  105       4.044003368110e-10       1.171100519219e-13      -3.726385021031e-12       4.400925111942e-16       8.826654072898e-12       1.316984582620e-12      -6.951402264681e-15 
  106       4.089770713333e-10       1.190109578274e-13      -3.818138736179e-12       4.486514752378e-16       8.605002462003e-12       1.290895640453e-12      -6.885206766121e-15 
  107       4.135778971220e-10       1.208800589321e-13      -3.909538746003e-12       4.573033059099e-16       8.390299347925e-12       1.265611628549e-12      -6.824327579717e-15 
