# Matter power spectrum P(k) at redshift z=99
# for k=1.00899e-05 to 203.102 h/Mpc,
# number of wavenumbers equal to 845
#    1:k (h/Mpc)              2:P (Mpc/h)^3        
       1.008985923385e-05       8.603096149270e-03 
       2.251775554930e-05       1.859294994966e-02 
       3.498636120606e-05       2.838346158554e-02 
       4.752690065129e-05       3.808746164271e-02 
       6.017107953816e-05       4.776713895249e-02 
       7.295134796828e-05       5.746785216534e-02 
       8.590117159567e-05       6.722755382411e-02 
       9.905531396721e-05       7.708061756709e-02 
       1.124501335013e-04       8.705976537135e-02 
       1.261238985365e-04       9.719721131513e-02 
       1.401171238971e-04       1.075254334299e-01 
       1.544729323969e-04       1.180777524373e-01 
       1.692374446017e-04       1.288888206839e-01 
       1.844601999509e-04       1.399950485524e-01 
       2.001946119308e-04       1.514350132118e-01 
       2.164984593225e-04       1.632498555773e-01 
       2.334344144963e-04       1.754836783348e-01 
       2.510706081659e-04       1.881839519471e-01 
       2.694812277618e-04       2.014019193426e-01 
       2.887471434300e-04       2.151930173319e-01 
       3.089565513521e-04       2.296172849874e-01 
       3.302056183397e-04       2.447397588873e-01 
       3.525991041884e-04       2.606308470266e-01 
       3.762509288441e-04       2.773666349324e-01 
       4.012846398935e-04       2.950291182754e-01 
       4.278337223492e-04       3.137063042046e-01 
       4.560416776520e-04       3.334921309505e-01 
       4.860617833901e-04       3.544861585545e-01 
       5.180564314341e-04       3.767929409744e-01 
       5.521959331310e-04       4.005210238520e-01 
       5.886566802046e-04       4.257814943284e-01 
       6.276185644258e-04       4.526860014586e-01 
       6.692615935926e-04       4.813442496306e-01 
       7.137617004578e-04       5.118609541250e-01 
       7.612858262925e-04       5.443323287874e-01 
       8.119864673565e-04       5.788422574779e-01 
       8.659959883789e-04       6.154583915203e-01 
       9.234211117495e-04       6.542284251944e-01 
       9.843380585498e-04       6.951769270849e-01 
       1.048788822721e-03       7.383030096086e-01 
       1.116778987109e-03       7.835791608999e-01 
       1.188277341859e-03       8.309513406471e-01 
       1.263217364320e-03       8.803405975358e-01 
       1.341500404014e-03       9.316540380185e-01 
       1.423000230117e-03       9.847647935895e-01 
       1.507568477514e-03       1.039537374429e+00 
       1.595040487398e-03       1.095825602117e+00 
       1.685241075052e-03       1.153476804530e+00 
       1.777989849946e-03       1.212335599627e+00 
       1.873105833493e-03       1.272247172937e+00 
       1.970411241375e-03       1.333059973160e+00 
       2.069734401352e-03       1.394627677561e+00 
       2.170911854437e-03       1.456810718202e+00 
       2.273789735608e-03       1.519477263367e+00 
       2.378224553543e-03       1.582503628464e+00 
       2.484083493407e-03       1.645774640700e+00 
       2.591244358870e-03       1.709183323129e+00 
       2.699595254824e-03       1.772631169074e+00 
       2.809034094888e-03       1.836027220457e+00 
       2.919468000394e-03       1.899288131305e+00 
       3.030812641761e-03       1.962337344584e+00 
       3.142991559685e-03       2.025105199696e+00 
       3.255935492585e-03       2.087527549653e+00 
       3.369581728141e-03       2.149546262419e+00 
       3.483873490193e-03       2.211108169521e+00 
       3.598759367421e-03       2.272165516681e+00 
       3.714192786759e-03       2.332673933873e+00 
       3.830131532053e-03       2.392594197655e+00 
       3.946537306880e-03       2.451889964100e+00 
       4.063375339396e-03       2.510529604484e+00 
       4.180614026477e-03       2.568483271771e+00 
       4.298224614140e-03       2.625725817793e+00 
       4.416180911106e-03       2.682233783074e+00 
       4.534459032436e-03       2.737986219477e+00 
       4.653037170281e-03       2.792965545293e+00 
       4.771895388998e-03       2.847155389084e+00 
       4.891015442065e-03       2.900542926845e+00 
       5.010380608463e-03       2.953116046783e+00 
       5.129975546421e-03       3.004864090441e+00 
       5.249786162607e-03       3.055780120677e+00 
       5.369799495068e-03       3.105856765534e+00 
       5.490003608392e-03       3.155090216455e+00 
       5.610387499743e-03       3.203476156741e+00 
       5.730941014549e-03       3.251011860155e+00 
       5.851654770797e-03       3.297696623862e+00 
       5.972520090970e-03       3.343531133967e+00 
       6.093528940795e-03       3.388515642785e+00 
       6.214673874059e-03       3.432652328494e+00 
       6.335947982840e-03       3.475944543693e+00 
       6.457344852562e-03       3.518394709468e+00 
       6.578858521367e-03       3.560009000259e+00 
       6.700483443346e-03       3.600791979446e+00 
       6.822214455222e-03       3.640748111040e+00 
       6.944046746129e-03       3.679884797428e+00 
       7.065975830168e-03       3.718209075869e+00 
       7.187997521452e-03       3.755726059815e+00 
       7.310107911398e-03       3.792446222039e+00 
       7.432303348035e-03       3.828376698398e+00 
       7.554580417124e-03       3.863525357630e+00 
       7.676935924931e-03       3.897898822789e+00 
       7.799366882465e-03       3.931507727190e+00 
       7.921870491067e-03       3.964360849010e+00 
       8.044444129208e-03       3.996466702352e+00 
       8.167085340379e-03       4.027834699744e+00 
       8.289791821990e-03       4.058472909849e+00 
       8.412561415158e-03       4.088392169463e+00 
       8.535392095331e-03       4.117600842108e+00 
       8.658281963652e-03       4.146107928387e+00 
       8.781229239010e-03       4.173921915083e+00 
       8.904232250708e-03       4.201054639748e+00 
       9.027289431704e-03       4.227512743005e+00 
       9.150399312368e-03       4.253305443212e+00 
       9.273560514714e-03       4.278442525004e+00 
       9.396771747065e-03       4.302932355128e+00 
       9.520031799123e-03       4.326783212401e+00 
       9.643339537395e-03       4.350004991687e+00 
       9.766693900965e-03       4.372603814649e+00 
       9.890093897566e-03       4.394590493659e+00 
       1.001353859994e-02       4.415973106106e+00 
       1.013702714247e-02       4.436757392681e+00 
       1.026055871802e-02       4.456952750854e+00 
       1.038413257505e-02       4.476566469503e+00 
       1.050774801489e-02       4.495609406609e+00 
       1.063140438921e-02       4.514082208500e+00 
       1.075510109773e-02       4.532000155962e+00 
       1.087883758598e-02       4.549365335055e+00 
       1.100261334330e-02       4.566184502889e+00 
       1.112642790095e-02       4.582466354523e+00 
       1.125028083038e-02       4.598218206539e+00 
       1.137417174154e-02       4.613445503602e+00 
       1.149810028141e-02       4.628156599917e+00 
       1.162206613256e-02       4.642354652817e+00 
       1.174606901183e-02       4.656049169060e+00 
       1.187010866910e-02       4.669245165807e+00 
       1.199418488617e-02       4.681949377878e+00 
       1.211829747567e-02       4.694165729653e+00 
       1.224244628010e-02       4.705904114989e+00 
       1.236663117090e-02       4.717167217190e+00 
       1.249085204757e-02       4.727961945480e+00 
       1.261510883696e-02       4.738293467226e+00 
       1.273940149246e-02       4.748166618409e+00 
       1.286372999336e-02       4.757590734296e+00 
       1.298809434421e-02       4.766567731978e+00 
       1.311249457428e-02       4.775102928594e+00 
       1.323693073698e-02       4.783205541701e+00 
       1.336140290942e-02       4.790874336952e+00 
       1.348591119193e-02       4.798121887711e+00 
       1.361045570765e-02       4.804949580642e+00 
       1.373503660222e-02       4.811363299654e+00 
       1.385965404336e-02       4.817369367167e+00 
       1.398430822064e-02       4.822970422415e+00 
       1.410899934517e-02       4.828174393909e+00 
       1.423372764937e-02       4.832982975247e+00 
       1.435849338678e-02       4.837405906460e+00 
       1.448329683185e-02       4.841443723404e+00 
       1.460813827981e-02       4.845102965877e+00 
       1.473301804651e-02       4.848391166367e+00 
       1.485793646835e-02       4.851310022728e+00 
       1.498289390217e-02       4.853863228863e+00 
       1.510789072521e-02       4.856061354985e+00 
       1.523292733507e-02       4.857903800285e+00 
       1.535800414968e-02       4.859396633388e+00 
       1.548312160735e-02       4.860548357405e+00 
       1.560828016672e-02       4.861361077690e+00 
       1.573348030688e-02       4.861834836443e+00 
       1.585872252741e-02       4.861979812125e+00 
       1.598400734844e-02       4.861801009172e+00 
       1.610933531079e-02       4.861299082553e+00 
       1.623470697605e-02       4.860484454459e+00 
       1.636012292677e-02       4.859358818459e+00 
       1.648558376655e-02       4.857921707199e+00 
       1.661109012028e-02       4.856187205248e+00 
       1.673664263428e-02       4.854151679928e+00 
       1.686224197652e-02       4.851824982808e+00 
       1.698788883685e-02       4.849209433003e+00 
       1.711358392725e-02       4.846305524716e+00 
       1.723932798205e-02       4.843124440626e+00 
       1.736512175823e-02       4.839665404000e+00 
       1.749096603570e-02       4.835934722012e+00 
       1.761686161762e-02       4.831933857073e+00 
       1.774280933070e-02       4.827677632241e+00 
       1.786881002554e-02       4.823153305078e+00 
       1.799486457700e-02       4.818379450540e+00 
       1.812097388457e-02       4.813353258309e+00 
       1.824713887274e-02       4.808076780116e+00 
       1.837336049141e-02       4.802559521041e+00 
       1.849963971633e-02       4.796804320544e+00 
       1.862597754953e-02       4.790809328822e+00 
       1.875237501977e-02       4.784585458458e+00 
       1.887883318301e-02       4.778132892689e+00 
       1.900535312294e-02       4.771460338219e+00 
       1.913193595143e-02       4.764563967662e+00 
       1.925858280911e-02       4.757453708487e+00 
       1.938529486592e-02       4.750126695041e+00 
       1.951207332163e-02       4.742594057035e+00 
       1.963891940648e-02       4.734853267424e+00 
       1.976583438176e-02       4.726919108967e+00 
       1.989281954046e-02       4.718775507046e+00 
       2.001987620788e-02       4.710441538464e+00 
       2.014700574237e-02       4.701920091773e+00 
       2.027420953594e-02       4.693206341369e+00 
       2.040148901504e-02       4.684310506425e+00 
       2.052884564128e-02       4.675231827355e+00 
       2.065628091220e-02       4.665978305766e+00 
       2.078379636203e-02       4.656552012852e+00 
       2.091139356253e-02       4.646953663719e+00 
       2.103907412384e-02       4.637180528813e+00 
       2.116683969530e-02       4.627254303504e+00 
       2.129469196640e-02       4.617156277088e+00 
       2.142263266765e-02       4.606900116012e+00 
       2.155066357157e-02       4.596500791476e+00 
       2.167878649364e-02       4.585948911443e+00 
       2.180700329333e-02       4.575238965687e+00 
       2.193531587513e-02       4.564390415812e+00 
       2.206372618964e-02       4.553394885726e+00 
       2.219223623466e-02       4.542262508467e+00 
       2.232084805636e-02       4.530998872168e+00 
       2.244956375042e-02       4.519597066709e+00 
       2.257838546331e-02       4.508061173128e+00 
       2.270731539347e-02       4.496405789645e+00 
       2.283635579267e-02       4.484621566843e+00 
       2.296550896730e-02       4.472705924461e+00 
       2.309477727980e-02       4.460691495398e+00 
       2.322416315002e-02       4.448551859252e+00 
       2.335366905675e-02       4.436299676542e+00 
       2.348329753921e-02       4.423935067776e+00 
       2.361305119861e-02       4.411459704469e+00 
       2.374293269977e-02       4.398881158576e+00 
       2.387294477280e-02       4.386206369792e+00 
       2.400309021484e-02       4.373429427325e+00 
       2.413337189178e-02       4.360551833135e+00 
       2.426379274017e-02       4.347582597922e+00 
       2.439435576908e-02       4.334517725776e+00 
       2.452506406208e-02       4.321363894352e+00 
       2.465592077927e-02       4.308120902268e+00 
       2.478692915937e-02       4.294804881734e+00 
       2.491809252189e-02       4.281392444106e+00 
       2.504941426942e-02       4.267906142094e+00 
       2.518089788986e-02       4.254341050241e+00 
       2.531254695892e-02       4.240703221544e+00 
       2.544436514254e-02       4.226995402465e+00 
       2.557635619949e-02       4.213202816162e+00 
       2.570852398403e-02       4.199364553083e+00 
       2.584087244865e-02       4.185448046030e+00 
       2.597340564696e-02       4.171459380743e+00 
       2.610612773662e-02       4.157419807055e+00 
       2.623904298241e-02       4.143318279886e+00 
       2.637215575941e-02       4.129157148172e+00 
       2.650547055630e-02       4.114942543696e+00 
       2.663899197875e-02       4.100668441353e+00 
       2.677272475300e-02       4.086353545089e+00 
       2.690667372948e-02       4.071985529356e+00 
       2.704084388668e-02       4.057559187913e+00 
       2.717524033506e-02       4.043098578860e+00 
       2.730986832117e-02       4.028600419841e+00 
       2.744473323193e-02       4.014040929387e+00 
       2.757984059904e-02       3.999452198838e+00 
       2.771519610360e-02       3.984828288262e+00 
       2.785080558089e-02       3.970174511846e+00 
       2.798667502534e-02       3.955462388963e+00 
       2.812281059571e-02       3.940739764693e+00 
       2.825921862046e-02       3.925966525065e+00 
       2.839590560337e-02       3.911178478920e+00 
       2.853287822937e-02       3.896358425932e+00 
       2.867014337060e-02       3.881510935533e+00 
       2.880770809274e-02       3.866633354336e+00 
       2.894557966159e-02       3.851740603974e+00 
       2.908376554997e-02       3.836819142121e+00 
       2.922227344485e-02       3.821877489769e+00 
       2.936111125486e-02       3.806917400874e+00 
       2.950028711803e-02       3.791942666358e+00 
       2.963980940998e-02       3.776943779224e+00 
       2.977968675242e-02       3.761929830333e+00 
       2.991992802197e-02       3.746906230172e+00 
       3.006054235952e-02       3.731873326448e+00 
       3.020153917986e-02       3.716822303350e+00 
       3.034292818185e-02       3.701765011198e+00 
       3.048471935906e-02       3.686693639822e+00 
       3.062692301082e-02       3.671612070202e+00 
       3.076954975391e-02       3.656543083855e+00 
       3.091261053472e-02       3.641458033671e+00 
       3.105611664203e-02       3.626353988735e+00 
       3.120007972039e-02       3.611270838953e+00 
       3.134451178417e-02       3.596161164281e+00 
       3.148942523232e-02       3.581061989124e+00 
       3.163483286384e-02       3.565963562524e+00 
       3.178074789403e-02       3.550868549455e+00 
       3.192718397158e-02       3.535760923167e+00 
       3.207415519655e-02       3.520664398654e+00 
       3.222167613928e-02       3.505571600755e+00 
       3.236976186026e-02       3.490473463513e+00 
       3.251842793110e-02       3.475402554584e+00 
       3.266769045662e-02       3.460298183175e+00 
       3.281756609808e-02       3.445241610331e+00 
       3.296807209781e-02       3.430165254036e+00 
       3.311922630503e-02       3.415090855335e+00 
       3.327104720329e-02       3.400049137820e+00 
       3.342355393934e-02       3.384998422573e+00 
       3.357676635374e-02       3.369944087573e+00 
       3.373070501315e-02       3.354925295117e+00 
       3.388539124463e-02       3.339905539879e+00 
       3.404084717188e-02       3.324893738759e+00 
       3.419709575366e-02       3.309890121355e+00 
       3.435416082463e-02       3.294908865821e+00 
       3.451206713858e-02       3.279916071310e+00 
       3.467084041444e-02       3.264963536238e+00 
       3.483050738512e-02       3.249989571677e+00 
       3.499109584951e-02       3.235055441375e+00 
       3.515263472782e-02       3.220124849942e+00 
       3.531515412053e-02       3.205200668959e+00 
       3.547868537122e-02       3.190291723710e+00 
       3.564326113364e-02       3.175394190809e+00 
       3.580891544335e-02       3.160509083793e+00 
       3.597568379423e-02       3.145631323465e+00 
       3.614360322038e-02       3.130780217836e+00 
       3.631271238380e-02       3.115923543901e+00 
       3.648305166828e-02       3.101087816077e+00 
       3.665466328025e-02       3.086261088422e+00 
       3.682759135694e-02       3.071453940273e+00 
       3.700188208264e-02       3.056647120589e+00 
       3.717758381384e-02       3.041856695063e+00 
       3.735474721393e-02       3.027074245361e+00 
       3.753342539844e-02       3.012287414549e+00 
       3.771367409180e-02       2.997522539114e+00 
       3.789555179669e-02       2.982773928570e+00 
       3.807911997726e-02       2.968019221191e+00 
       3.826444325751e-02       2.953284648547e+00 
       3.845158963647e-02       2.938546043502e+00 
       3.864063072175e-02       2.923824566686e+00 
       3.883164198345e-02       2.909100592536e+00 
       3.902470303062e-02       2.894377317396e+00 
       3.921989791253e-02       2.879659445164e+00 
       3.941731544758e-02       2.864941054528e+00 
       3.961704958289e-02       2.850222561457e+00 
       3.981919978798e-02       2.835515205730e+00 
       4.002387148648e-02       2.820794098613e+00 
       4.023117653032e-02       2.806069299004e+00 
       4.044123372141e-02       2.791338578565e+00 
       4.065416938658e-02       2.776604254445e+00 
       4.087011801240e-02       2.761860658854e+00 
       4.108922294733e-02       2.747109487267e+00 
       4.131163717982e-02       2.732336365446e+00 
       4.153752420241e-02       2.717555010927e+00 
       4.176705897322e-02       2.702761170691e+00 
       4.200042898802e-02       2.687936784973e+00 
       4.223783547839e-02       2.673103117644e+00 
       4.247949475379e-02       2.658238054048e+00 
       4.272563970839e-02       2.643343840664e+00 
       4.297652151713e-02       2.628420551009e+00 
       4.323241154967e-02       2.613457637526e+00 
       4.349360353592e-02       2.598459235914e+00 
       4.376041602319e-02       2.583416980562e+00 
       4.403319517213e-02       2.568326457952e+00 
       4.431231794788e-02       2.553187593805e+00 
       4.459819577357e-02       2.537989528761e+00 
       4.489127872701e-02       2.522728422603e+00 
       4.519206037738e-02       2.507393180646e+00 
       4.550108337953e-02       2.491992422762e+00 
       4.581894596815e-02       2.476512986451e+00 
       4.614630952536e-02       2.460932515018e+00 
       4.648390743429e-02       2.445241435215e+00 
       4.683255547970e-02       2.429459839860e+00 
       4.719316411816e-02       2.413547155314e+00 
       4.756675301773e-02       2.397509686180e+00 
       4.795446836503e-02       2.381343479818e+00 
       4.835760356241e-02       2.365020218922e+00 
       4.877762409663e-02       2.348506858244e+00 
       4.921619756285e-02       2.331791569002e+00 
       4.967523008562e-02       2.314835244376e+00 
       5.015691070604e-02       2.297645928876e+00 
       5.066376571717e-02       2.280172126065e+00 
       5.119872544391e-02       2.262363322328e+00 
       5.176520658853e-02       2.244201664291e+00 
       5.236721399178e-02       2.225615011778e+00 
       5.300946644312e-02       2.206530827430e+00 
       5.369755187007e-02       2.186862594276e+00 
       5.443811751592e-02       2.166507318547e+00 
       5.523909986870e-02       2.145316425099e+00 
       5.610999570581e-02       2.123104129229e+00 
       5.706216694303e-02       2.099616736398e+00 
       5.810915312358e-02       2.074537433308e+00 
