# Matter power spectrum P(k) at redshift z=99
# for k=1.00899e-05 to 203.102 h/Mpc,
# number of wavenumbers equal to 845
#    1:k (h/Mpc)              2:P (Mpc/h)^3        
       1.008985923246e-05       4.867971163075e-03 
       2.251775554681e-05       3.993277703503e-02 
       3.498636120247e-05       4.131505446151e-02 
       4.752690064658e-05       4.678330413199e-02 
       6.017107953230e-05       5.236026883219e-02 
       7.295134796122e-05       6.148045107985e-02 
       8.590117158737e-05       6.929617165587e-02 
       9.905531395762e-05       7.683706790550e-02 
       1.124501334903e-04       8.670025875561e-02 
       1.261238985241e-04       9.661875178488e-02 
       1.401171238832e-04       1.067412280295e-01 
       1.544729323814e-04       1.179910640307e-01 
       1.692374445844e-04       1.285072576082e-01 
       1.844601999316e-04       1.399753691880e-01 
       2.001946119095e-04       1.512309866586e-01 
       2.164984592990e-04       1.635549692690e-01 
       2.334344144703e-04       1.759457451713e-01 
       2.510706081373e-04       1.879863684755e-01 
       2.694812277303e-04       2.012321876630e-01 
       2.887471433953e-04       2.151225106178e-01 
       3.089565513139e-04       2.294850185859e-01 
       3.302056182976e-04       2.445081620655e-01 
       3.525991041420e-04       2.604186663011e-01 
       3.762509287930e-04       2.771427097425e-01 
       4.012846398372e-04       2.948545494854e-01 
       4.278337222871e-04       3.135457631521e-01 
       4.560416775835e-04       3.332974710125e-01 
       4.860617833145e-04       3.543225650980e-01 
       5.180564313506e-04       3.765789879575e-01 
       5.521959330390e-04       4.004354640367e-01 
       5.886566801031e-04       4.256874664339e-01 
       6.276185643138e-04       4.525970662360e-01 
       6.692615934693e-04       4.813036732908e-01 
       7.137617003222e-04       5.118017920846e-01 
       7.612858261435e-04       5.442783380154e-01 
       8.119864671933e-04       5.788158505545e-01 
       8.659959882004e-04       6.154285107649e-01 
       9.234211115549e-04       6.541715200575e-01 
       9.843380583383e-04       6.951348109488e-01 
       1.048788822492e-03       7.382620563095e-01 
       1.116778986862e-03       7.835179427472e-01 
       1.188277341593e-03       8.309060453549e-01 
       1.263217364035e-03       8.803006851548e-01 
       1.341500403710e-03       9.316105630044e-01 
       1.423000229794e-03       9.846848859336e-01 
       1.507568477172e-03       1.039493038692e+00 
       1.595040487038e-03       1.095778876103e+00 
       1.685241074673e-03       1.153419683284e+00 
       1.777989849548e-03       1.212278936518e+00 
       1.873105833077e-03       1.272195243295e+00 
       1.970411240942e-03       1.333008717432e+00 
       2.069734400901e-03       1.394567008126e+00 
       2.170911853969e-03       1.456747425076e+00 
       2.273789735124e-03       1.519418609211e+00 
       2.378224553043e-03       1.582436280242e+00 
       2.484083492891e-03       1.645710640819e+00 
       2.591244358339e-03       1.709115353104e+00 
       2.699595254278e-03       1.772559598514e+00 
       2.809034094327e-03       1.835951105288e+00 
       2.919467999818e-03       1.899209020503e+00 
       3.030812641171e-03       1.962260645880e+00 
       3.142991559080e-03       2.025023766729e+00 
       3.255935491967e-03       2.087442455527e+00 
       3.369581727509e-03       2.149460576927e+00 
       3.483873489548e-03       2.211021323376e+00 
       3.598759366763e-03       2.272074999605e+00 
       3.714192786088e-03       2.332581358821e+00 
       3.830131531369e-03       2.392501179291e+00 
       3.946537306183e-03       2.451792841119e+00 
       4.063375338686e-03       2.510431727626e+00 
       4.180614025754e-03       2.568381959799e+00 
       4.298224613405e-03       2.625622818049e+00 
       4.416180910359e-03       2.682129079725e+00 
       4.534459031676e-03       2.737878482362e+00 
       4.653037169509e-03       2.792855773064e+00 
       4.771895388214e-03       2.847044314642e+00 
       4.891015441268e-03       2.900430397530e+00 
       5.010380607654e-03       2.953001698150e+00 
       5.129975545600e-03       3.004748136278e+00 
       5.249786161774e-03       3.055663150503e+00 
       5.369799494223e-03       3.105739117075e+00 
       5.490003607537e-03       3.154971404413e+00 
       5.610387498875e-03       3.203354411269e+00 
       5.730941013670e-03       3.250889250045e+00 
       5.851654769906e-03       3.297574347178e+00 
       5.972520090068e-03       3.343407423390e+00 
       6.093528939880e-03       3.388390970883e+00 
       6.214673873133e-03       3.432526690756e+00 
       6.335947981903e-03       3.475819543498e+00 
       6.457344851613e-03       3.518270320592e+00 
       6.578858520406e-03       3.559883526087e+00 
       6.700483442374e-03       3.600663782978e+00 
       6.822214454238e-03       3.640619695309e+00 
       6.944046745134e-03       3.679753321400e+00 
       7.065975829162e-03       3.718076287678e+00 
       7.187997520434e-03       3.755596323265e+00 
       7.310107910369e-03       3.792316952157e+00 
       7.432303346994e-03       3.828242951280e+00 
       7.554580416073e-03       3.863389062950e+00 
       7.676935923868e-03       3.897765378734e+00 
       7.799366881390e-03       3.931373754044e+00 
       7.921870489981e-03       3.964220812446e+00 
       8.044444128110e-03       3.996328349733e+00 
       8.167085339271e-03       4.027693926572e+00 
       8.289791820870e-03       4.058331773411e+00 
       8.412561414027e-03       4.088253958525e+00 
       8.535392094189e-03       4.117459295376e+00 
       8.658281962499e-03       4.145965958740e+00 
       8.781229237845e-03       4.173779707009e+00 
       8.904232249532e-03       4.200911818026e+00 
       9.027289430517e-03       4.227369455633e+00 
       9.150399311170e-03       4.253160051500e+00 
       9.273560513504e-03       4.278300423578e+00 
       9.396771745844e-03       4.302789578285e+00 
       9.520031797891e-03       4.326636018512e+00 
       9.643339536152e-03       4.349862655984e+00 
       9.766693899711e-03       4.372458927573e+00 
       9.890093896300e-03       4.394444052518e+00 
       1.001353859866e-02       4.415826285497e+00 
       1.013702714118e-02       4.436614926758e+00 
       1.026055871672e-02       4.456807986634e+00 
       1.038413257374e-02       4.476421310766e+00 
       1.050774801356e-02       4.495463514242e+00 
       1.063140438788e-02       4.513934662700e+00 
       1.075510109639e-02       4.531851366318e+00 
       1.087883758462e-02       4.549217102185e+00 
       1.100261334193e-02       4.566035472965e+00 
       1.112642789957e-02       4.582319183252e+00 
       1.125028082899e-02       4.598068512201e+00 
       1.137417174014e-02       4.613300389059e+00 
       1.149810028000e-02       4.628005844149e+00 
       1.162206613114e-02       4.642204775163e+00 
       1.174606901039e-02       4.655897492045e+00 
       1.187010866765e-02       4.669093784527e+00 
       1.199418488471e-02       4.681799069608e+00 
       1.211829747421e-02       4.694012998331e+00 
       1.224244627863e-02       4.705751208522e+00 
       1.236663116941e-02       4.717010394719e+00 
       1.249085204607e-02       4.727809391959e+00 
       1.261510883545e-02       4.738137680330e+00 
       1.273940149094e-02       4.748015977668e+00 
       1.286372999182e-02       4.757439035218e+00 
       1.298809434267e-02       4.766414759827e+00 
       1.311249457272e-02       4.774950500161e+00 
       1.323693073542e-02       4.783051764650e+00 
       1.336140290784e-02       4.790720503829e+00 
       1.348591119034e-02       4.797971153670e+00 
       1.361045570605e-02       4.804799000884e+00 
       1.373503660061e-02       4.811210876441e+00 
       1.385965404174e-02       4.817216272088e+00 
       1.398430821901e-02       4.822817684964e+00 
       1.410899934352e-02       4.828018271274e+00 
       1.423372764771e-02       4.832829770467e+00 
       1.435849338511e-02       4.837251259194e+00 
       1.448329683018e-02       4.841290560784e+00 
       1.460813827812e-02       4.844951059256e+00 
       1.473301804481e-02       4.848237346664e+00 
       1.485793646664e-02       4.851154559178e+00 
       1.498289390044e-02       4.853710591433e+00 
       1.510789072347e-02       4.855907411231e+00 
       1.523292733332e-02       4.857751514546e+00 
       1.535800414793e-02       4.859245058436e+00 
       1.548312160558e-02       4.860392369657e+00 
       1.560828016494e-02       4.861204751626e+00 
       1.573348030509e-02       4.861675167917e+00 
       1.585872252561e-02       4.861828973393e+00 
       1.598400734663e-02       4.861648013457e+00 
       1.610933530897e-02       4.861148485148e+00 
       1.623470697422e-02       4.860331027695e+00 
       1.636012292492e-02       4.859210718294e+00 
       1.648558376469e-02       4.857771862563e+00 
       1.661109011841e-02       4.856035251275e+00 
       1.673664263240e-02       4.854002201878e+00 
       1.686224197463e-02       4.851673524124e+00 
       1.698788883495e-02       4.849052411863e+00 
       1.711358392534e-02       4.846155793975e+00 
       1.723932798012e-02       4.842963978361e+00 
       1.736512175629e-02       4.839519012953e+00 
       1.749096603375e-02       4.835784699575e+00 
       1.761686161566e-02       4.831790769548e+00 
       1.774280932873e-02       4.827522753076e+00 
       1.786881002356e-02       4.823003993494e+00 
       1.799486457501e-02       4.818230041092e+00 
       1.812097388257e-02       4.813202374771e+00 
       1.824713887072e-02       4.807930985726e+00 
       1.837336048938e-02       4.802411871732e+00 
       1.849963971429e-02       4.796654550626e+00 
       1.862597754748e-02       4.790660845318e+00 
       1.875237501771e-02       4.784437750717e+00 
       1.887883318094e-02       4.777977232622e+00 
       1.900535312085e-02       4.771314211569e+00 
       1.913193594933e-02       4.764423754266e+00 
       1.925858280700e-02       4.757307849872e+00 
       1.938529486380e-02       4.749983725608e+00 
       1.951207331950e-02       4.742445942228e+00 
       1.963891940434e-02       4.734708393786e+00 
       1.976583437961e-02       4.726766295880e+00 
       1.989281953829e-02       4.718630855801e+00 
       2.001987620571e-02       4.710296681336e+00 
       2.014700574018e-02       4.701776577759e+00 
       2.027420953374e-02       4.693052733677e+00 
       2.040148901283e-02       4.684168542498e+00 
       2.052884563906e-02       4.675089887916e+00 
       2.065628090997e-02       4.665834117835e+00 
       2.078379635978e-02       4.656396979552e+00 
       2.091139356027e-02       4.646806149310e+00 
       2.103907412157e-02       4.637035036854e+00 
       2.116683969302e-02       4.627113243156e+00 
       2.129469196411e-02       4.617017799525e+00 
       2.142263266535e-02       4.606763313287e+00 
       2.155066356926e-02       4.596367033097e+00 
       2.167878649131e-02       4.585808759602e+00 
       2.180700329099e-02       4.575096322613e+00 
       2.193531587278e-02       4.564247767169e+00 
       2.206372618728e-02       4.553259023386e+00 
       2.219223623229e-02       4.542127069837e+00 
       2.232084805397e-02       4.530857193468e+00 
       2.244956374803e-02       4.519455366719e+00 
       2.257838546090e-02       4.507924119373e+00 
       2.270731539105e-02       4.496265780951e+00 
       2.283635579024e-02       4.484478927728e+00 
       2.296550896486e-02       4.472573570087e+00 
       2.309477727734e-02       4.460553389019e+00 
       2.322416314755e-02       4.448413776751e+00 
       2.335366905427e-02       4.436160122745e+00 
       2.348329753672e-02       4.423794964175e+00 
       2.361305119611e-02       4.411325408354e+00 
       2.374293269725e-02       4.398748534702e+00 
       2.387294477028e-02       4.386070078973e+00 
       2.400309021230e-02       4.373291702175e+00 
       2.413337188923e-02       4.360413015185e+00 
       2.426379273761e-02       4.347445144631e+00 
       2.439435576651e-02       4.334382529872e+00 
       2.452506405949e-02       4.321229970085e+00 
       2.465592077667e-02       4.307989954902e+00 
       2.478692915676e-02       4.294666851316e+00 
       2.491809251927e-02       4.281259640483e+00 
       2.504941426679e-02       4.267773408637e+00 
       2.518089788722e-02       4.254211296121e+00 
       2.531254695627e-02       4.240578876635e+00 
       2.544436513988e-02       4.226861510723e+00 
       2.557635619681e-02       4.213080273272e+00 
       2.570852398133e-02       4.199227736637e+00 
       2.584087244594e-02       4.185310593976e+00 
       2.597340564424e-02       4.171333359567e+00 
       2.610612773389e-02       4.157291015852e+00 
       2.623904297966e-02       4.143187630757e+00 
       2.637215575665e-02       4.129028934094e+00 
       2.650547055353e-02       4.114813975424e+00 
       2.663899197597e-02       4.100546076779e+00 
       2.677272475021e-02       4.086227202396e+00 
       2.690667372668e-02       4.071856969917e+00 
       2.704084388387e-02       4.057440670040e+00 
       2.717524033223e-02       4.042977951640e+00 
       2.730986831833e-02       4.028470846543e+00 
       2.744473322907e-02       4.013922699315e+00 
       2.757984059617e-02       3.999334970592e+00 
       2.771519610072e-02       3.984707173850e+00 
       2.785080557800e-02       3.970043511188e+00 
       2.798667502244e-02       3.955345021998e+00 
       2.812281059279e-02       3.940612316286e+00 
       2.825921861753e-02       3.925850500078e+00 
       2.839590560043e-02       3.911057063182e+00 
       2.853287822642e-02       3.896235498297e+00 
       2.867014336763e-02       3.881386873992e+00 
       2.880770808975e-02       3.866513428367e+00 
       2.894557965859e-02       3.851616163371e+00 
       2.908376554696e-02       3.836696488053e+00 
       2.922227344183e-02       3.821757020693e+00 
       2.936111125182e-02       3.806797862866e+00 
       2.950028711498e-02       3.791818713671e+00 
       2.963980940692e-02       3.776824864160e+00 
       2.977968674934e-02       3.761815166702e+00 
       2.991992801888e-02       3.746791688716e+00 
       3.006054235642e-02       3.731756708755e+00 
       3.020153917674e-02       3.716707245760e+00 
       3.034292817872e-02       3.701650178551e+00 
       3.048471935591e-02       3.686582763211e+00 
       3.062692300766e-02       3.671509667870e+00 
       3.076954975073e-02       3.656426608373e+00 
       3.091261053153e-02       3.641340635693e+00 
       3.105611663883e-02       3.626247365736e+00 
       3.120007971717e-02       3.611151516789e+00 
       3.134451178094e-02       3.596054374781e+00 
       3.148942522908e-02       3.580954400911e+00 
       3.163483286058e-02       3.565853033715e+00 
       3.178074789075e-02       3.550752837888e+00 
       3.192718396829e-02       3.535654277407e+00 
       3.207415519325e-02       3.520556910498e+00 
       3.222167613596e-02       3.505461888724e+00 
       3.236976185693e-02       3.490369923927e+00 
       3.251842792776e-02       3.475283588926e+00 
       3.266769045326e-02       3.460201179434e+00 
       3.281756609471e-02       3.445125946728e+00 
       3.296807209441e-02       3.430055862688e+00 
       3.311922630162e-02       3.414993886321e+00 
       3.327104719986e-02       3.399936916806e+00 
       3.342355393590e-02       3.384889470579e+00 
       3.357676635028e-02       3.369851739074e+00 
       3.373070500968e-02       3.354819702441e+00 
       3.388539124115e-02       3.339799954482e+00 
       3.404084716838e-02       3.324788288205e+00 
       3.419709575014e-02       3.309788991257e+00 
       3.435416082110e-02       3.294799162511e+00 
       3.451206713503e-02       3.279821436546e+00 
       3.467084041087e-02       3.264854574963e+00 
       3.483050738153e-02       3.249897201755e+00 
       3.499109584590e-02       3.234952027857e+00 
       3.515263472420e-02       3.220021108391e+00 
       3.531515411689e-02       3.205100347451e+00 
       3.547868536756e-02       3.190192390501e+00 
       3.564326112997e-02       3.175294708422e+00 
       3.580891543966e-02       3.160410179286e+00 
       3.597568379052e-02       3.145539407122e+00 
       3.614360321665e-02       3.130678628018e+00 
       3.631271238005e-02       3.115828874984e+00 
       3.648305166451e-02       3.100993057359e+00 
       3.665466327647e-02       3.086166554323e+00 
       3.682759135313e-02       3.071354452259e+00 
       3.700188207881e-02       3.056549606294e+00 
       3.717758380999e-02       3.041756366852e+00 
       3.735474721006e-02       3.026973203413e+00 
       3.753342539455e-02       3.012201226892e+00 
       3.771367408789e-02       2.997435755741e+00 
       3.789555179276e-02       2.982680376927e+00 
       3.807911997330e-02       2.967932579598e+00 
       3.826444325354e-02       2.953192159896e+00 
       3.845158963247e-02       2.938458152616e+00 
       3.864063071773e-02       2.923727659214e+00 
       3.883164197941e-02       2.909003657365e+00 
       3.902470302655e-02       2.894284384346e+00 
       3.921989790844e-02       2.879567846612e+00 
       3.941731544346e-02       2.864851218184e+00 
       3.961704957874e-02       2.850135226907e+00 
       3.981919978381e-02       2.835419052810e+00 
       4.002387148228e-02       2.820701094427e+00 
       4.023117652610e-02       2.805978732552e+00 
       4.044123371716e-02       2.791250522433e+00 
       4.065416938230e-02       2.776516274818e+00 
       4.087011800810e-02       2.761774937925e+00 
       4.108922294299e-02       2.747021958906e+00 
       4.131163717545e-02       2.732255452387e+00 
       4.153752419801e-02       2.717473695695e+00 
       4.176705896879e-02       2.702677033010e+00 
       4.200042898355e-02       2.687858320577e+00 
       4.223783547389e-02       2.673016857830e+00 
       4.247949474925e-02       2.658155253465e+00 
       4.272563970381e-02       2.643260810170e+00 
       4.297652151252e-02       2.628334278823e+00 
       4.323241154501e-02       2.613374087638e+00 
       4.349360353122e-02       2.598376779838e+00 
       4.376041601845e-02       2.583334665472e+00 
       4.403319516735e-02       2.568245490165e+00 
       4.431231794305e-02       2.553104614063e+00 
       4.459819576870e-02       2.537908744055e+00 
       4.489127872208e-02       2.522649272666e+00 
       4.519206037240e-02       2.507319533488e+00 
       4.550108337449e-02       2.491911743701e+00 
       4.581894596305e-02       2.476426449378e+00 
       4.614630952020e-02       2.460847587846e+00 
       4.648390742907e-02       2.445167090693e+00 
       4.683255547441e-02       2.429379098483e+00 
       4.719316411280e-02       2.413476737341e+00 
       4.756675301229e-02       2.397441732616e+00 
       4.795446835950e-02       2.381269937007e+00 
       4.835760355679e-02       2.364950964453e+00 
       4.877762409092e-02       2.348430802632e+00 
       4.921619755703e-02       2.331700087615e+00 
       4.967523007970e-02       2.314748329031e+00 
       5.015691069999e-02       2.297546085183e+00 
       5.066376571099e-02       2.280062402294e+00 
       5.119872543759e-02       2.262252973528e+00 
       5.176520658204e-02       2.244078153222e+00 
       5.236721398511e-02       2.225481363722e+00 
       5.300946643626e-02       2.206387976787e+00 
       5.369755186298e-02       2.186714803561e+00 
       5.443811750858e-02       2.166349783427e+00 
       5.523909986108e-02       2.145149854253e+00 
       5.610999569786e-02       2.122929248012e+00 
       5.706216693470e-02       2.099439849766e+00 
       5.810915311482e-02       2.074349890856e+00 
