# Matter power spectrum P(k) at redshift z=99
# for k=1.00899e-05 to 203.102 h/Mpc,
# number of wavenumbers equal to 845
#    1:k (h/Mpc)              2:P (Mpc/h)^3        
       1.008985923246e-05       4.868391664535e-03 
       2.251775554681e-05       3.993233962708e-02 
       3.498636120247e-05       4.131478844362e-02 
       4.752690064658e-05       4.678309151601e-02 
       6.017107953230e-05       5.236009549516e-02 
       7.295134796122e-05       6.148026085269e-02 
       8.590117158737e-05       6.929597987567e-02 
       9.905531395762e-05       7.683687135097e-02 
       1.124501334903e-04       8.670006086250e-02 
       1.261238985241e-04       9.661852902491e-02 
       1.401171238832e-04       1.067409952755e-01 
       1.544729323814e-04       1.179909633228e-01 
       1.692374445844e-04       1.285074475393e-01 
       1.844601999316e-04       1.399751989970e-01 
       2.001946119095e-04       1.512306814065e-01 
       2.164984592990e-04       1.635546412390e-01 
       2.334344144703e-04       1.759453952754e-01 
       2.510706081373e-04       1.879859974407e-01 
       2.694812277303e-04       2.012317938823e-01 
       2.887471433953e-04       2.151220921377e-01 
       3.089565513139e-04       2.294845744668e-01 
       3.302056182976e-04       2.445076910445e-01 
       3.525991041420e-04       2.604181665415e-01 
       3.762509287930e-04       2.771421797667e-01 
       4.012846398372e-04       2.948539873110e-01 
       4.278337222871e-04       3.135451670101e-01 
       4.560416775835e-04       3.332968388265e-01 
       4.860617833145e-04       3.543218966853e-01 
       5.180564313506e-04       3.765782682364e-01 
       5.521959330390e-04       4.004347055544e-01 
       5.886566801031e-04       4.256866629466e-01 
       6.276185643138e-04       4.525962142987e-01 
       6.692615934693e-04       4.813027805996e-01 
       7.137617003222e-04       5.118008370338e-01 
       7.612858261435e-04       5.442773185825e-01 
       8.119864671933e-04       5.788147504795e-01 
       8.659959882004e-04       6.154273532845e-01 
       9.234211115549e-04       6.541703014147e-01 
       9.843380583383e-04       6.951335111091e-01 
       1.048788822492e-03       7.382606745712e-01 
       1.116778986862e-03       7.835164792613e-01 
       1.188277341593e-03       8.309044920528e-01 
       1.263217364035e-03       8.802990406895e-01 
       1.341500403710e-03       9.316088221362e-01 
       1.423000229794e-03       9.846830472996e-01 
       1.507568477172e-03       1.039491096045e+00 
       1.595040487038e-03       1.095776827544e+00 
       1.685241074673e-03       1.153417528813e+00 
       1.777989849548e-03       1.212276669906e+00 
       1.873105833077e-03       1.272192865368e+00 
       1.970411240942e-03       1.333006225354e+00 
       2.069734400901e-03       1.394564401463e+00 
       2.170911853969e-03       1.456744701420e+00 
       2.273789735124e-03       1.519415768518e+00 
       2.378224553043e-03       1.582433322459e+00 
       2.484083492891e-03       1.645707564905e+00 
       2.591244358339e-03       1.709112158752e+00 
       2.699595254278e-03       1.772556285708e+00 
       2.809034094327e-03       1.835947674117e+00 
       2.919467999818e-03       1.899205471247e+00 
       3.030812641171e-03       1.962256979003e+00 
       3.142991559080e-03       2.025019982772e+00 
       3.255935491967e-03       2.087438555165e+00 
       3.369581727509e-03       2.149456560939e+00 
       3.483873489548e-03       2.211017192662e+00 
       3.598759366763e-03       2.272070755124e+00 
       3.714192786088e-03       2.332577001666e+00 
       3.830131531369e-03       2.392496710548e+00 
       3.946537306183e-03       2.451788262025e+00 
       4.063375338686e-03       2.510427039449e+00 
       4.180614025754e-03       2.568377163847e+00 
       4.298224613405e-03       2.625617915695e+00 
       4.416180910359e-03       2.682124072370e+00 
       4.534459031676e-03       2.737873371485e+00 
       4.653037169509e-03       2.792850560145e+00 
       4.771895388214e-03       2.847039001193e+00 
       4.891015441268e-03       2.900424985091e+00 
       5.010380607654e-03       2.952996188289e+00 
       5.129975545600e-03       3.004742530579e+00 
       5.249786161774e-03       3.055657450563e+00 
       5.369799494223e-03       3.105733324505e+00 
       5.490003607537e-03       3.154965520838e+00 
       5.610387498875e-03       3.203348438319e+00 
       5.730941013670e-03       3.250883189348e+00 
       5.851654769906e-03       3.297568199490e+00 
       5.972520090068e-03       3.343401192086e+00 
       6.093528939880e-03       3.388384656745e+00 
       6.214673873133e-03       3.432520295399e+00 
       6.335947981903e-03       3.475813068538e+00 
       6.457344851613e-03       3.518263767657e+00 
       6.578858520406e-03       3.559876896795e+00 
       6.700483442374e-03       3.600657078756e+00 
       6.822214454238e-03       3.640612918063e+00 
       6.944046745134e-03       3.679746472565e+00 
       7.065975829162e-03       3.718069368815e+00 
       7.187997520434e-03       3.755589335903e+00 
       7.310107910369e-03       3.792309897829e+00 
       7.432303346994e-03       3.828235831794e+00 
       7.554580416073e-03       3.863381879233e+00 
       7.676935923868e-03       3.897758132567e+00 
       7.799366881390e-03       3.931366446103e+00 
       7.921870489981e-03       3.964213445784e+00 
       8.044444128110e-03       3.996320924541e+00 
       8.167085339271e-03       4.027686445179e+00 
       8.289791820870e-03       4.058324236773e+00 
       8.412561414027e-03       4.088246368004e+00 
       8.535392094189e-03       4.117451652382e+00 
       8.658281962499e-03       4.145958264598e+00 
       8.781229237845e-03       4.173771963005e+00 
       8.904232249532e-03       4.200904025517e+00 
       9.027289430517e-03       4.227361615910e+00 
       9.150399311170e-03       4.253152165873e+00 
       9.273560513504e-03       4.278292493319e+00 
       9.396771745844e-03       4.302781604633e+00 
       9.520031797891e-03       4.326633505930e+00 
       9.643339536152e-03       4.349854599367e+00 
       9.766693899711e-03       4.372450831083e+00 
       9.890093896300e-03       4.394435917343e+00 
       1.001353859866e-02       4.415818112991e+00 
       1.013702714118e-02       4.436606725794e+00 
       1.026055871672e-02       4.456799742633e+00 
       1.038413257374e-02       4.476413032800e+00 
       1.050774801356e-02       4.495455177814e+00 
       1.063140438788e-02       4.513926320061e+00 
       1.075510109639e-02       4.531842949153e+00 
       1.087883758462e-02       4.549208700072e+00 
       1.100261334193e-02       4.566027041330e+00 
       1.112642789957e-02       4.582310719607e+00 
       1.125028082899e-02       4.598060026444e+00 
       1.137417174014e-02       4.613291877664e+00 
       1.149810028000e-02       4.627997308311e+00 
       1.162206613114e-02       4.642198466345e+00 
       1.174606901039e-02       4.655888910267e+00 
       1.187010866765e-02       4.669085180945e+00 
       1.199418488471e-02       4.681790444788e+00 
       1.211829747421e-02       4.694004354229e+00 
       1.224244627863e-02       4.705741177745e+00 
       1.236663116941e-02       4.717001713967e+00 
       1.249085204607e-02       4.727800956693e+00 
       1.261510883545e-02       4.738128966525e+00 
       1.273940149094e-02       4.748007248660e+00 
       1.286372999182e-02       4.757428334469e+00 
       1.298809434267e-02       4.766406003044e+00 
       1.311249457272e-02       4.774941730552e+00 
       1.323693073542e-02       4.783042983408e+00 
       1.336140290784e-02       4.790711711809e+00 
       1.348591119034e-02       4.797962351226e+00 
       1.361045570605e-02       4.804790301309e+00 
       1.373503660061e-02       4.811202054444e+00 
       1.385965404174e-02       4.817207794808e+00 
       1.398430821901e-02       4.822808850121e+00 
       1.410899934352e-02       4.828009434928e+00 
       1.423372764771e-02       4.832820923645e+00 
       1.435849338511e-02       4.837242407991e+00 
       1.448329683018e-02       4.841281704149e+00 
       1.460813827812e-02       4.844942200406e+00 
       1.473301804481e-02       4.848228485259e+00 
       1.485793646664e-02       4.851145696008e+00 
       1.498289390044e-02       4.853701726747e+00 
       1.510789072347e-02       4.855898546326e+00 
       1.523292733332e-02       4.857742649851e+00 
       1.535800414793e-02       4.859234278569e+00 
       1.548312160558e-02       4.860383507363e+00 
       1.560828016494e-02       4.861195891506e+00 
       1.573348030509e-02       4.861666310623e+00 
       1.585872252561e-02       4.861820119530e+00 
       1.598400734663e-02       4.861647413991e+00 
       1.610933530897e-02       4.861139640032e+00 
       1.623470697422e-02       4.860322187878e+00 
       1.636012292492e-02       4.859196782786e+00 
       1.648558376469e-02       4.857764394308e+00 
       1.661109011841e-02       4.856026430807e+00 
       1.673664263240e-02       4.853993389004e+00 
       1.686224197463e-02       4.851664719421e+00 
       1.698788883495e-02       4.849043206480e+00 
       1.711358392534e-02       4.846147007204e+00 
       1.723932798012e-02       4.842955201378e+00 
       1.736512175629e-02       4.839510246244e+00 
       1.749096603375e-02       4.835775943692e+00 
       1.761686161566e-02       4.831782024985e+00 
       1.774280932873e-02       4.827514020414e+00 
       1.786881002356e-02       4.822995273059e+00 
       1.799486457501e-02       4.818221333484e+00 
       1.812097388257e-02       4.813193680393e+00 
       1.824713887072e-02       4.807922305067e+00 
       1.837336048938e-02       4.802403205259e+00 
       1.849963971429e-02       4.796645898795e+00 
       1.862597754748e-02       4.790645203696e+00 
       1.875237501771e-02       4.784429129476e+00 
       1.887883318094e-02       4.777968627415e+00 
       1.900535312085e-02       4.771305622611e+00 
       1.913193594933e-02       4.764415182073e+00 
       1.925858280700e-02       4.757299294866e+00 
       1.938529486380e-02       4.749975188165e+00 
       1.951207331950e-02       4.742437422765e+00 
       1.963891940434e-02       4.734699892665e+00 
       1.976583437961e-02       4.726757813481e+00 
       1.989281953829e-02       4.718621613982e+00 
       2.001987620571e-02       4.710288237480e+00 
       2.014700574018e-02       4.701768153691e+00 
       2.027420953374e-02       4.693044329828e+00 
       2.040148901283e-02       4.684160159068e+00 
       2.052884563906e-02       4.675081525325e+00 
       2.065628090997e-02       4.665825776393e+00 
       2.078379635978e-02       4.656388659564e+00 
       2.091139356027e-02       4.646797851138e+00 
       2.103907412157e-02       4.637026760778e+00 
       2.116683969302e-02       4.627099152972e+00 
       2.129469196411e-02       4.617009568509e+00 
       2.142263266535e-02       4.606761298101e+00 
       2.155066356926e-02       4.596358848276e+00 
       2.167878649131e-02       4.585800598437e+00 
       2.180700329099e-02       4.575088185211e+00 
       2.193531587278e-02       4.564239653795e+00 
       2.206372618728e-02       4.553250934369e+00 
       2.219223623229e-02       4.542113516839e+00 
       2.232084805397e-02       4.530854529460e+00 
       2.244956374803e-02       4.519447352176e+00 
       2.257838546090e-02       4.507916130135e+00 
       2.270731539105e-02       4.496257817235e+00 
       2.283635579024e-02       4.484470989768e+00 
       2.296550896486e-02       4.472565658085e+00 
       2.309477727734e-02       4.460545449904e+00 
       2.322416314755e-02       4.448405917314e+00 
       2.335366905427e-02       4.436149832184e+00 
       2.348329753672e-02       4.423787158102e+00 
       2.361305119611e-02       4.411317629255e+00 
       2.374293269725e-02       4.398740782760e+00 
       2.387294477028e-02       4.386062354403e+00 
       2.400309021230e-02       4.373284005068e+00 
       2.413337188923e-02       4.360404856538e+00 
       2.426379273761e-02       4.347436355605e+00 
       2.439435576651e-02       4.334374916274e+00 
       2.452506405949e-02       4.321222307528e+00 
       2.465592077667e-02       4.307983115252e+00 
       2.478692915676e-02       4.294659780031e+00 
       2.491809251927e-02       4.281252454591e+00 
       2.504941426679e-02       4.267765937246e+00 
       2.518089788722e-02       4.254203853573e+00 
       2.531254695627e-02       4.240571464242e+00 
       2.544436513988e-02       4.226853707256e+00 
       2.557635619681e-02       4.213073223737e+00 
       2.570852398133e-02       4.199221100311e+00 
       2.584087244594e-02       4.185303656971e+00 
       2.597340564424e-02       4.171325387082e+00 
       2.610612773389e-02       4.157283778546e+00 
       2.623904297966e-02       4.143180900769e+00 
       2.637215575665e-02       4.129021870493e+00 
       2.650547055353e-02       4.114806827544e+00 
       2.663899197597e-02       4.100538248878e+00 
       2.677272475021e-02       4.086219506820e+00 
       2.690667372668e-02       4.071849912329e+00 
       2.704084388387e-02       4.057433642687e+00 
       2.717524033223e-02       4.042969936389e+00 
       2.730986831833e-02       4.028464219401e+00 
       2.744473322907e-02       4.013915565473e+00 
       2.757984059617e-02       3.999328064810e+00 
       2.771519610072e-02       3.984700359689e+00 
       2.785080557800e-02       3.970036666561e+00 
       2.798667502244e-02       3.955338207965e+00 
       2.812281059279e-02       3.940606974260e+00 
       2.825921861753e-02       3.925843616857e+00 
       2.839590560043e-02       3.911050338645e+00 
       2.853287822642e-02       3.896228669543e+00 
       2.867014336763e-02       3.881380213827e+00 
       2.880770808975e-02       3.866507128887e+00 
       2.894557965859e-02       3.851609564983e+00 
       2.908376554696e-02       3.836689585259e+00 
       2.922227344183e-02       3.821750484136e+00 
       2.936111125182e-02       3.806789735599e+00 
       2.950028711498e-02       3.791812239095e+00 
       2.963980940692e-02       3.776818420591e+00 
       2.977968674934e-02       3.761808754142e+00 
       2.991992801888e-02       3.746785307174e+00 
       3.006054235642e-02       3.731749596149e+00 
       3.020153917674e-02       3.716700926249e+00 
       3.034292817872e-02       3.701643895182e+00 
       3.048471935591e-02       3.686576509696e+00 
       3.062692300766e-02       3.671503441302e+00 
       3.076954975073e-02       3.656420891489e+00 
       3.091261053153e-02       3.641332910557e+00 
       3.105611663883e-02       3.626241233955e+00 
       3.120007971717e-02       3.611145417811e+00 
       3.134451178094e-02       3.596048303551e+00 
       3.148942522908e-02       3.580948196640e+00 
       3.163483286058e-02       3.565847203815e+00 
       3.178074789075e-02       3.550746857906e+00 
       3.192718396829e-02       3.535647208075e+00 
       3.207415519325e-02       3.520550373281e+00 
       3.222167613596e-02       3.505456012785e+00 
       3.236976185693e-02       3.490363249936e+00 
       3.251842792776e-02       3.475277765125e+00 
       3.266769045326e-02       3.460195390495e+00 
       3.281756609471e-02       3.445120212871e+00 
       3.296807209441e-02       3.430050131411e+00 
       3.311922630162e-02       3.414988184669e+00 
       3.327104719986e-02       3.399931246450e+00 
       3.342355393590e-02       3.384883827629e+00 
       3.357676635028e-02       3.369846124971e+00 
       3.373070500968e-02       3.354814450940e+00 
       3.388539124115e-02       3.339794407307e+00 
       3.404084716838e-02       3.324782771726e+00 
       3.419709575014e-02       3.309783504107e+00 
       3.435416082110e-02       3.294793706981e+00 
       3.451206713503e-02       3.279815801513e+00 
       3.467084041087e-02       3.264849180532e+00 
       3.483050738153e-02       3.249891836893e+00 
       3.499109584590e-02       3.234946834883e+00 
       3.515263472420e-02       3.220015541850e+00 
       3.531515411689e-02       3.205095075626e+00 
       3.547868536756e-02       3.190185789588e+00 
       3.564326112997e-02       3.175289496211e+00 
       3.580891543966e-02       3.160404997349e+00 
       3.597568379052e-02       3.145534255428e+00 
       3.614360321665e-02       3.130673501348e+00 
       3.631271238005e-02       3.115823782857e+00 
       3.648305166451e-02       3.100987646150e+00 
       3.665466327647e-02       3.086163673177e+00 
       3.682759135313e-02       3.071349445211e+00 
       3.700188207881e-02       3.056544635457e+00 
       3.717758380999e-02       3.041751425204e+00 
       3.735474721006e-02       3.026967774436e+00 
       3.753342539455e-02       3.012196346136e+00 
       3.771367408789e-02       2.997430905117e+00 
       3.789555179276e-02       2.982674777397e+00 
       3.807911997330e-02       2.967927784534e+00 
       3.826444325354e-02       2.953187399055e+00 
       3.845158963247e-02       2.938451362333e+00 
       3.864063071773e-02       2.923722958422e+00 
       3.883164197941e-02       2.909000856776e+00 
       3.902470302655e-02       2.894279744628e+00 
       3.921989790844e-02       2.879563235608e+00 
       3.941731544346e-02       2.864846637195e+00 
       3.961704957874e-02       2.850130213122e+00 
       3.981919978381e-02       2.835415607657e+00 
       4.002387148228e-02       2.820696603449e+00 
       4.023117652610e-02       2.805974281858e+00 
       4.044123371716e-02       2.791246553499e+00 
       4.065416938230e-02       2.776511956723e+00 
       4.087011800810e-02       2.761769920068e+00 
       4.108922294299e-02       2.747016727012e+00 
       4.131163717545e-02       2.732251691108e+00 
       4.153752419801e-02       2.717469414265e+00 
       4.176705896879e-02       2.702672784582e+00 
       4.200042898355e-02       2.687854522197e+00 
       4.223783547389e-02       2.673012669243e+00 
       4.247949474925e-02       2.658151095473e+00 
       4.272563970381e-02       2.643256682655e+00 
       4.297652151252e-02       2.628330182086e+00 
       4.323241154501e-02       2.613370021898e+00 
       4.349360353122e-02       2.598372098257e+00 
       4.376041601845e-02       2.583330661774e+00 
       4.403319516735e-02       2.568241517768e+00 
       4.431231794305e-02       2.553100673143e+00 
       4.459819576870e-02       2.537902366553e+00 
       4.489127872208e-02       2.522645395251e+00 
       4.519206037240e-02       2.507315688140e+00 
       4.550108337449e-02       2.491909198201e+00 
       4.581894596305e-02       2.476422618828e+00 
       4.614630952020e-02       2.460844809401e+00 
       4.648390742907e-02       2.445163376341e+00 
       4.683255547441e-02       2.429375417652e+00 
       4.719316411280e-02       2.413473090448e+00 
       4.756675301229e-02       2.397440135973e+00 
       4.795446835950e-02       2.381266359248e+00 
       4.835760355679e-02       2.364947426808e+00 
       4.877762409092e-02       2.348428560081e+00 
       4.921619755703e-02       2.331696617602e+00 
       4.967523007970e-02       2.314748428330e+00 
       5.015691069999e-02       2.297542693596e+00 
       5.066376571099e-02       2.280059046621e+00 
       5.119872543759e-02       2.262249658233e+00 
       5.176520658204e-02       2.244074878952e+00 
       5.236721398511e-02       2.225478131918e+00 
       5.300946643626e-02       2.206384789100e+00 
       5.369755186298e-02       2.186711661810e+00 
       5.443811750858e-02       2.166347107013e+00 
       5.523909986108e-02       2.145146811348e+00 
       5.610999569786e-02       2.122926258885e+00 
       5.706216693470e-02       2.099436961149e+00 
       5.810915311482e-02       2.074346798264e+00 
