# dimensionless total lensed [l(l+1)/2pi] C_l's
# for l=2 to 2500, i.e. number of multipoles equal to 2499
#
# -> if you prefer output in CAMB/HealPix/LensPix units/order, set 'format' to 'camb' in input file
# -> if you don't want to see such a header, set 'headers' to 'no' in input file
# -> for CMB lensing (phi), these are C_l^phi-phi for the lensing potential.
#    Remember the conversion factors:
#    C_l^dd (deflection) = l(l+1) C_l^phi-phi
#    C_l^gg (shear/convergence) = 1/4 (l(l+1))^2 C_l^phi-phi
#
# 1:l     2:TT                     3:EE                     4:TE                     5:BB                     6:phiphi                 7:TPhi                   8:Ephi               
    2       1.513641300809e-10       4.794157989208e-15       3.799564757588e-13       2.253195516458e-19       8.308923700242e-09       5.059108242998e-10      -2.012656032471e-12 
    3       1.417615752567e-10       6.054617039120e-15       4.281343422033e-13       4.507390224042e-19       5.129799118374e-09       3.573060303217e-10      -1.512216040690e-12 
    4       1.331026704017e-10       5.148967583039e-15       3.998163192429e-13       7.514516488083e-19       3.573409030730e-09       2.695795567961e-10      -9.767906771940e-13 
    5       1.266660025271e-10       3.373328978433e-15       3.391748917407e-13       1.127584880838e-18       2.668741277856e-09       2.123130621261e-10      -5.310276874958e-13 
    6       1.222161399504e-10       1.856558711531e-15       2.715867946227e-13       1.579293206188e-18       2.084685383844e-09       1.723349120221e-10      -2.072582953648e-13 
    7       1.192662069876e-10       9.991988339989e-16       2.117219089887e-13       2.106755156553e-18       1.680637049438e-09       1.430919683747e-10      -5.088521191805e-15 
    8       1.174574139526e-10       6.511196999439e-16       1.659063413201e-13       2.710169927456e-18       1.387200795796e-09       1.209772692518e-10       9.390952111986e-14 
    9       1.164912014210e-10       5.242241146668e-16       1.354169922265e-13       3.389753714446e-18       1.166709309777e-09       1.038400949786e-10       1.170787615493e-13 
   10       1.161201175100e-10       4.430159756475e-16       1.186523570381e-13       4.145735875612e-18       9.966353738809e-10       9.028039276905e-11       9.395884327065e-14 
   11       1.162478222246e-10       3.698576740691e-16       1.125807054797e-13       4.978355033487e-18       8.432464264132e-10       7.968591990670e-11       5.145231290059e-14 
   12       1.167284396457e-10       3.230804611069e-16       1.137760674977e-13       5.887855228579e-18       7.367176565450e-10       7.043633986065e-11       8.506000290437e-15 
   13       1.174922435952e-10       3.112413919308e-16       1.192646578096e-13       6.874482231954e-18       6.492672287426e-10       6.289374866356e-11      -2.257332398037e-14 
   14       1.184663170702e-10       3.231150264096e-16       1.268628847187e-13       7.938480115814e-18       5.765081078383e-10       5.630741510450e-11      -3.807918529970e-14 
   15       1.196482968330e-10       3.466844068624e-16       1.351523456969e-13       9.080088169074e-18       5.152642081568e-10       5.077087450689e-11      -3.911720351957e-14 
   16       1.209785521361e-10       3.813540801476e-16       1.435290476061e-13       1.029953823018e-17       4.631934796957e-10       4.602117060259e-11      -3.058996447169e-14 
   17       1.224468116550e-10       4.337531531771e-16       1.518946478874e-13       1.159705249230e-17       4.185266398658e-10       4.189315378597e-11      -1.835706011835e-14 
   18       1.240050421987e-10       5.088184713053e-16       1.604896704228e-13       1.297284160881e-17       3.797603655802e-10       3.827079194183e-11      -7.624520899538e-15 
   19       1.256647573406e-10       6.063037114163e-16       1.695548406037e-13       1.442710457456e-17       3.462762749578e-10       3.511440303161e-11      -8.584052191681e-16 
   20       1.274047384342e-10       7.236625457693e-16       1.792702575024e-13       1.596002577899e-17       3.167867445939e-10       3.233015717559e-11       6.145637785230e-16 
   21       1.292312275682e-10       8.602908875829e-16       1.895894381239e-13       1.757177807366e-17       2.908285808209e-10       2.986664057200e-11      -2.207639174411e-15 
   22       1.311258092558e-10       1.015840262822e-15       2.002905753424e-13       1.926251952247e-17       2.677799219709e-10       2.764732743995e-11      -7.115538524550e-15 
   23       1.330865039366e-10       1.190077747261e-15       2.109342366516e-13       2.103239799711e-17       2.473239118804e-10       2.564956560790e-11      -1.224086456116e-14 
   24       1.350962399932e-10       1.382726054911e-15       2.209773837714e-13       2.288154787372e-17       2.289880273003e-10       2.384571235167e-11      -1.575949792127e-14 
   25       1.371658865482e-10       1.594329909306e-15       2.301491602485e-13       2.481009640427e-17       2.125565444673e-10       2.222825945627e-11      -1.704046122035e-14 
   26       1.392960390791e-10       1.825899348812e-15       2.382739863617e-13       2.681815973156e-17       1.977319144492e-10       2.077754731522e-11      -1.603163293160e-14 
   27       1.414725208275e-10       2.079491454599e-15       2.452843145084e-13       2.890584893349e-17       1.843361863092e-10       1.946523675713e-11      -1.354542646492e-14 
   28       1.436685112296e-10       2.357478111581e-15       2.511747516661e-13       3.107326731084e-17       1.721383295644e-10       1.825333386466e-11      -1.073998100545e-14 
   29       1.458941765825e-10       2.661305323949e-15       2.560107478990e-13       3.332051986757e-17       1.610759811736e-10       1.714067445443e-11      -8.251073651963e-15 
   30       1.481605218941e-10       2.992116015567e-15       2.599155707035e-13       3.564770563417e-17       1.510303039875e-10       1.612905010149e-11      -6.645362192217e-15 
   31       1.504675364488e-10       3.350982879753e-15       2.630143044188e-13       3.805491762782e-17       1.417963360675e-10       1.521067886307e-11      -6.413608228981e-15 
   32       1.528176082422e-10       3.738824688773e-15       2.652513500482e-13       4.054225426790e-17       1.333263144487e-10       1.437514423678e-11      -7.275238442538e-15 
   33       1.552042875490e-10       4.156444110295e-15       2.665033483506e-13       4.310981223092e-17       1.255602610220e-10       1.360308979034e-11      -8.596708923634e-15 
   34       1.576143004077e-10       4.604597054836e-15       2.666291371624e-13       4.575768497943e-17       1.183894129313e-10       1.287152962651e-11      -9.698403086924e-15 
   35       1.600520931881e-10       5.084190220024e-15       2.654864340332e-13       4.848596762622e-17       1.117770079375e-10       1.218237442316e-11      -1.034719069920e-14 
   36       1.625221100379e-10       5.596144500007e-15       2.629182786788e-13       5.129475407424e-17       1.056699453360e-10       1.154305776835e-11      -1.042957411471e-14 
   37       1.650238029805e-10       6.141326065711e-15       2.587810776170e-13       5.418413482247e-17       9.998868737956e-11       1.095786364191e-11      -9.879822277679e-15 
   38       1.675596317858e-10       6.720499900084e-15       2.530609783298e-13       5.715419310545e-17       9.471850840251e-11       1.042490591683e-11      -8.879745465337e-15 
   39       1.701284772426e-10       7.334353965733e-15       2.457966381215e-13       6.020500773044e-17       8.984264324618e-11       9.937594746424e-12      -7.729766358061e-15 
   40       1.727226615139e-10       7.983505906064e-15       2.370498691321e-13       6.333665425825e-17       8.531453199646e-11       9.484993401098e-12      -6.801275388944e-15 
   41       1.753322823759e-10       8.668545954977e-15       2.268826795304e-13       6.654920124557e-17       8.107402739457e-11       9.055117131321e-12      -6.434255806209e-15 
   42       1.779614868370e-10       9.390193232626e-15       2.152760373454e-13       6.984269722771e-17       7.710860893864e-11       8.646969109575e-12      -6.579189766168e-15 
   43       1.806163930820e-10       1.014918279060e-14       2.021870217965e-13       7.321717968934e-17       7.340772249648e-11       8.261828993835e-12      -7.046203786583e-15 
   44       1.833002526226e-10       1.094622141601e-14       1.875706344152e-13       7.667267842022e-17       6.994441260547e-11       7.899839778002e-12      -7.599142638378e-15 
   45       1.860141477628e-10       1.178194948955e-14       1.713803278674e-13       8.020921097477e-17       6.668494057991e-11       7.560284431874e-12      -8.011597554862e-15 
   46       1.887600686113e-10       1.265681587573e-14       1.535704317774e-13       8.382676779883e-17       6.362414384220e-11       7.242753789578e-12      -8.261615521310e-15 
   47       1.915382247184e-10       1.357116352640e-14       1.340939823301e-13       8.752532239180e-17       6.075842716180e-11       6.946155043141e-12      -8.390399892822e-15 
   48       1.943458675978e-10       1.452525986438e-14       1.129017563678e-13       9.130483490796e-17       5.807509819858e-11       6.668286131319e-12      -8.449066103409e-15 
   49       1.971770365688e-10       1.551929342157e-14       8.994204156757e-14       9.516525174840e-17       5.555169123242e-11       6.405755953289e-12      -8.499208819703e-15 
   50       2.000253192100e-10       1.655340171015e-14       6.516675387777e-14       9.910650515283e-17       5.316272583747e-11       6.154969761310e-12      -8.599462097151e-15 
   51       2.028936057156e-10       1.762777155501e-14       3.855228059515e-14       1.031285127911e-16       5.090371462836e-11       5.915585768554e-12      -8.759563301966e-15 
   52       2.057865429204e-10       1.874256018414e-14       1.008389764262e-14       1.072311773553e-16       4.877250317033e-11       5.687858882885e-12      -8.974800720015e-15 
   53       2.087076414683e-10       1.989786452851e-14      -2.025001597207e-14       1.114143861520e-16       4.676208594536e-11       5.471628575676e-12      -9.238840953062e-15 
   54       2.116591635176e-10       2.109371932991e-14      -5.245790928450e-14       1.156780106941e-16       4.486027996149e-11       5.266289221583e-12      -9.543636919658e-15 
   55       2.146424262792e-10       2.233010979375e-14      -8.654559503967e-14       1.200219159891e-16       4.305343624263e-11       5.071050517056e-12      -9.878986249810e-15 
   56       2.176590581893e-10       2.360701756286e-14      -1.225181702993e-13       1.244459920407e-16       4.133940173582e-11       4.885862442909e-12      -1.023128876360e-14 
   57       2.207098581048e-10       2.492438285035e-14      -1.603784523201e-13       1.289501294585e-16       3.971720572104e-11       4.710668130080e-12      -1.058431917990e-14 
   58       2.237943128092e-10       2.628208959877e-14      -2.001263714866e-13       1.335342104169e-16       3.818313865799e-11       4.545115953972e-12      -1.091944635764e-14 
   59       2.269105009198e-10       2.767996415465e-14      -2.417589259926e-13       1.381981086256e-16       3.673058311539e-11       4.388541175984e-12      -1.121552767560e-14 
   60       2.300549967942e-10       2.911777394308e-14      -2.852701365227e-13       1.429416892984e-16       3.534984470028e-11       4.239947585048e-12      -1.144880341236e-14 
   61       2.332243289801e-10       3.059517548226e-14      -3.306518561328e-13       1.477648263856e-16       3.403084039462e-11       4.098279966071e-12      -1.159847637495e-14 
   62       2.364199554979e-10       3.211154778999e-14      -3.778965148421e-13       1.526674588566e-16       3.277225119014e-11       3.963354504630e-12      -1.166515323810e-14 
   63       2.396442398768e-10       3.366611906128e-14      -4.269949134792e-13       1.576495470542e-16       3.157413319125e-11       3.835105594601e-12      -1.165637397488e-14 
   64       2.428989493146e-10       3.525801115396e-14      -4.779354050226e-13       1.627110570542e-16       3.043516463825e-11       3.713304489744e-12      -1.158136516012e-14 
   65       2.461852079088e-10       3.688623665579e-14      -5.307038764162e-13       1.678519611834e-16       2.935256750001e-11       3.597550172952e-12      -1.145111473893e-14 
   66       2.495034498879e-10       3.854969595166e-14      -5.852837303864e-13       1.730722385366e-16       2.832202906664e-11       3.487260225508e-12      -1.127844679523e-14 
   67       2.528533728429e-10       4.024717429073e-14      -6.416558672582e-13       1.783718754939e-16       2.733762354219e-11       3.381661696341e-12      -1.107809632022e-14 
   68       2.562344796127e-10       4.197745050952e-14      -6.997986613869e-13       1.837508739413e-16       2.639339223739e-11       3.279994014325e-12      -1.086416411941e-14 
   69       2.596479359864e-10       4.373965533884e-14      -7.596879255529e-13       1.892092767080e-16       2.548863122146e-11       3.182185879161e-12      -1.064171555842e-14 
   70       2.630950071327e-10       4.553298076418e-14      -8.212969066536e-13       1.947471482361e-16       2.462353915627e-11       3.088299753727e-12      -1.041360599783e-14 
   71       2.665764711054e-10       4.735657471781e-14      -8.845962724569e-13       2.003645680360e-16       2.379761815205e-11       2.998328315339e-12      -1.018295765972e-14 
   72       2.700925871304e-10       4.920954100154e-14      -9.495540932800e-13       2.060616314007e-16       2.300963777957e-11       2.912190748104e-12      -9.953167392129e-15 
   73       2.736430638915e-10       5.109093920959e-14      -1.016135823668e-12       2.118384501198e-16       2.225759908221e-11       2.829729035268e-12      -9.727914433386e-15 
   74       2.772270278172e-10       5.299978465134e-14      -1.084304284073e-12       2.176951531945e-16       2.153869858812e-11       2.750704251570e-12      -9.511168176516e-15 
   75       2.808429913666e-10       5.493504827418e-14      -1.154019642533e-12       2.236318875517e-16       2.084929232231e-11       2.674792855587e-12      -9.307195933612e-15 
   76       2.844895091965e-10       5.689561116826e-14      -1.225240945632e-12       2.296488091245e-16       2.018579888166e-11       2.601670923936e-12      -9.119799853003e-15 
   77       2.881673549050e-10       5.888011867357e-14      -1.297931074201e-12       2.357460526382e-16       1.954767833296e-11       2.531292783239e-12      -8.949849858350e-15 
   78       2.918776854543e-10       6.088709940475e-14      -1.372052662226e-12       2.419237575870e-16       1.893493367240e-11       2.463656688051e-12      -8.797312845263e-15 
   79       2.956213711816e-10       6.291500731672e-14      -1.447566640965e-12       2.481820778877e-16       1.834720349257e-11       2.398719513034e-12      -8.661975705488e-15 
   80       2.993989781905e-10       6.496222069619e-14      -1.524432252396e-12       2.545211823961e-16       1.778374525085e-11       2.336394848626e-12      -8.543437284441e-15 
   81       3.032107507434e-10       6.702704115307e-14      -1.602607062668e-12       2.609412554242e-16       1.724341853773e-11       2.276551096707e-12      -8.441100338746e-15 
   82       3.070565936530e-10       6.910769261201e-14      -1.682046975544e-12       2.674424972570e-16       1.672466834527e-11       2.219009566271e-12      -8.354163493768e-15 
   83       3.109360546747e-10       7.120232030383e-14      -1.762706245854e-12       2.740251246692e-16       1.622550833534e-11       2.163542569091e-12      -8.281613201147e-15 
   84       3.148486197577e-10       7.330905075252e-14      -1.844536880743e-12       2.806893683317e-16       1.574400262142e-11       2.109928424786e-12      -8.222184349294e-15 
   85       3.187946936089e-10       7.542618537136e-14      -1.927486699925e-12       2.874354634039e-16       1.527983953173e-11       2.058131124544e-12      -8.174252208950e-15 
   86       3.227747501580e-10       7.755203726108e-14      -2.011500977021e-12       2.942636583221e-16       1.483298927912e-11       2.008147098820e-12      -8.135907745737e-15 
   87       3.267890219834e-10       7.968487308424e-14      -2.096523026280e-12       3.011742182290e-16       1.440322041420e-11       1.959950022226e-12      -8.104978931524e-15 
   88       3.308374879619e-10       8.182291308183e-14      -2.182494205735e-12       3.081674254387e-16       1.399009147215e-11       1.913489865655e-12      -8.079022175119e-15 
   89       3.349198609186e-10       8.396433108995e-14      -2.269353920362e-12       3.152435799009e-16       1.359294261943e-11       1.868691948412e-12      -8.055313752962e-15 
   90       3.390355752777e-10       8.610725455630e-14      -2.357039625242e-12       3.224029996657e-16       1.321088730052e-11       1.825455990342e-12      -8.030841239817e-15 
   91       3.431837747118e-10       8.824976455691e-14      -2.445486828718e-12       3.296460213479e-16       1.284280388465e-11       1.783655163961e-12      -8.002294939472e-15 
   92       3.473632997924e-10       9.038989581265e-14      -2.534629095551e-12       3.369730005920e-16       1.248732731256e-11       1.743135146585e-12      -7.966059315425e-15 
   93       3.515730351959e-10       9.252566991193e-14      -2.624399264274e-12       3.443843229307e-16       1.214317234681e-11       1.703752506136e-12      -7.919067746803e-15 
   94       3.558130378824e-10       9.465520065823e-14      -2.714733301803e-12       3.518804372212e-16       1.181017707943e-11       1.665498521393e-12      -7.861532463768e-15 
   95       3.600835565507e-10       9.677660467122e-14      -2.805567037092e-12       3.594618281198e-16       1.148840165377e-11       1.628392318452e-12      -7.794611261262e-15 
   96       3.643846798859e-10       9.888797005865e-14      -2.896835018166e-12       3.671290067355e-16       1.117780689453e-11       1.592442793873e-12      -7.719583994939e-15 
   97       3.687163291451e-10       1.009873568887e-13      -2.988470531945e-12       3.748825112365e-16       1.087825050633e-11       1.557648206741e-12      -7.637855862583e-15 
   98       3.730782507428e-10       1.030727976626e-13      -3.080405624069e-12       3.827229074585e-16       1.058948327228e-11       1.523995770720e-12      -7.550960685522e-15 
   99       3.774700088365e-10       1.051422977866e-13      -3.172571118723e-12       3.906507895107e-16       1.031114525267e-11       1.491461246110e-12      -7.460564190049e-15 
  100       3.818909779127e-10       1.071938360449e-13      -3.264896638468e-12       3.986667803842e-16       1.004276198348e-11       1.460008531901e-12      -7.368467288840e-15 
  101       3.863403353721e-10       1.092253650719e-13      -3.357310624061e-12       4.067715325586e-16       9.783740675070e-12       1.429589257833e-12      -7.276609362368e-15 
  102       3.908170541156e-10       1.112348118245e-13      -3.449740354285e-12       4.149657286093e-16       9.533366410741e-12       1.400142376447e-12      -7.187071540325e-15 
  103       3.953198951295e-10       1.132200780545e-13      -3.542111965772e-12       4.232500818152e-16       9.290798345352e-12       1.371593755144e-12      -7.102079983034e-15 
  104       3.998476626246e-10       1.151790918719e-13      -3.634351025120e-12       4.316253133783e-16       9.055259946877e-12       1.343873098321e-12      -7.023521612718e-15 
  105       4.044000246728e-10       1.171099693487e-13      -3.726384290543e-12       4.400920792716e-16       8.826647176617e-12       1.316968195822e-12      -6.951409736734e-15 
  106       4.089767901203e-10       1.190108757278e-13      -3.818138226266e-12       4.486510345960e-16       8.604995760846e-12       1.290877276252e-12      -6.885216304993e-15 
  107       4.135776514587e-10       1.208799773030e-13      -3.909538497063e-12       4.573028564306e-16       8.390292835387e-12       1.265592116413e-12      -6.824338899789e-15 
