# Matter power spectrum P(k) at redshift z=99
# for k=1.00899e-05 to 203.102 h/Mpc,
# number of wavenumbers equal to 845
#    1:k (h/Mpc)              2:P (Mpc/h)^3        
       1.008985923385e-05       8.602955780512e-03 
       2.251775554930e-05       1.859264658570e-02 
       3.498636120606e-05       2.838299847887e-02 
       4.752690065129e-05       3.808684020485e-02 
       6.017107953816e-05       4.776635958030e-02 
       7.295134796828e-05       5.746691451559e-02 
       8.590117159567e-05       6.722645693434e-02 
       9.905531396721e-05       7.707935991400e-02 
       1.124501335013e-04       8.705834489774e-02 
       1.261238985365e-04       9.719562543820e-02 
       1.401171238971e-04       1.075236790369e-01 
       1.544729323969e-04       1.180758258719e-01 
       1.692374446017e-04       1.288867177243e-01 
       1.844601999509e-04       1.399927643828e-01 
       2.001946119308e-04       1.514325423869e-01 
       2.164984593225e-04       1.632471919805e-01 
       2.334344144963e-04       1.754808151301e-01 
       2.510706081659e-04       1.881808815237e-01 
       2.694812277618e-04       2.013986332539e-01 
       2.887471434300e-04       2.151895062267e-01 
       3.089565513521e-04       2.296135385348e-01 
       3.302056183397e-04       2.447357656952e-01 
       3.525991041884e-04       2.606265945544e-01 
       3.762509288441e-04       2.773621093979e-01 
       4.012846398935e-04       2.950243045585e-01 
       4.278337223492e-04       3.137011857494e-01 
       4.560416776520e-04       3.334866896683e-01 
       4.860617833901e-04       3.544803747322e-01 
       5.180564314341e-04       3.767867931932e-01 
       5.521959331310e-04       4.005144889217e-01 
       5.886566802046e-04       4.257745472464e-01 
       6.276185644258e-04       4.526786154008e-01 
       6.692615935926e-04       4.813363959829e-01 
       7.137617004578e-04       5.118526025646e-01 
       7.612858262925e-04       5.443234474219e-01 
       8.119864673565e-04       5.788328130460e-01 
       8.659959883789e-04       6.154483496573e-01 
       9.234211117495e-04       6.542177507569e-01 
       9.843380585498e-04       6.951655845292e-01 
       1.048788822721e-03       7.382909634050e-01 
       1.116778987109e-03       7.835663759679e-01 
       1.188277341859e-03       8.309377827879e-01 
       1.263217364320e-03       8.803262338387e-01 
       1.341500404014e-03       9.316388370889e-01 
       1.423000230117e-03       9.847487261024e-01 
       1.507568477514e-03       1.039520413270e+00 
       1.595040487398e-03       1.095807722558e+00 
       1.685241075052e-03       1.153457984331e+00 
       1.777989849946e-03       1.212315819088e+00 
       1.873105833493e-03       1.272226414879e+00 
       1.970411241375e-03       1.333038222879e+00 
       2.069734401352e-03       1.394604922741e+00 
       2.170911854437e-03       1.456786948804e+00 
       2.273789735608e-03       1.519452471503e+00 
       2.378224553543e-03       1.582477808263e+00 
       2.484083493407e-03       1.645747788171e+00 
       2.591244358870e-03       1.709155436027e+00 
       2.699595254824e-03       1.772602246761e+00 
       2.809034094888e-03       1.835997263778e+00 
       2.919468000394e-03       1.899257142466e+00 
       3.030812641761e-03       1.962305327041e+00 
       3.142991559685e-03       2.025072158039e+00 
       3.255935492585e-03       2.087493489521e+00 
       3.369581728141e-03       2.149511190398e+00 
       3.483873490193e-03       2.211072093067e+00 
       3.598759367421e-03       2.272128444027e+00 
       3.714192786759e-03       2.332635873975e+00 
       3.830131532053e-03       2.392555160111e+00 
       3.946537306880e-03       2.451849959103e+00 
       4.063375339396e-03       2.510488642737e+00 
       4.180614026477e-03       2.568441364469e+00 
       4.298224614140e-03       2.625682976541e+00 
       4.416180911106e-03       2.682190019856e+00 
       4.534459032436e-03       2.737941546625e+00 
       4.653037170281e-03       2.792919975420e+00 
       4.771895388998e-03       2.847108935074e+00 
       4.891015442065e-03       2.900495601789e+00 
       5.010380608463e-03       2.953067863972e+00 
       5.129975546421e-03       3.004815063336e+00 
       5.249786162607e-03       3.055730262857e+00 
       5.369799495068e-03       3.105806090694e+00 
       5.490003608392e-03       3.155038738355e+00 
       5.610387499743e-03       3.203423889211e+00 
       5.730941014549e-03       3.250958817068e+00 
       5.851654770797e-03       3.297642819088e+00 
       5.972520090970e-03       3.343476581895e+00 
       6.093528940795e-03       3.388460356305e+00 
       6.214673874059e-03       3.432596321820e+00 
       6.335947982840e-03       3.475887830810e+00 
       6.457344852562e-03       3.518337304015e+00 
       6.578858521367e-03       3.559950915875e+00 
       6.700483443346e-03       3.600733229697e+00 
       6.822214455222e-03       3.640688709418e+00 
       6.944046746129e-03       3.679824757305e+00 
       7.065975830168e-03       3.718148410502e+00 
       7.187997521452e-03       3.755664782378e+00 
       7.310107911398e-03       3.792384345535e+00 
       7.432303348035e-03       3.828314235702e+00 
       7.554580417124e-03       3.863462321522e+00 
       7.676935924931e-03       3.897835225908e+00 
       7.799366882465e-03       3.931443582012e+00 
       7.921870491067e-03       3.964296167868e+00 
       8.044444129208e-03       3.996401497441e+00 
       8.167085340379e-03       4.027768983105e+00 
       8.289791821990e-03       4.058406693391e+00 
       8.412561415158e-03       4.088325465017e+00 
       8.535392095331e-03       4.117533661071e+00 
       8.658281963652e-03       4.146040282307e+00 
       8.781229239010e-03       4.173853815272e+00 
       8.904232250708e-03       4.200986097324e+00 
       9.027289431704e-03       4.227443769382e+00 
       9.150399312368e-03       4.253236048435e+00 
       9.273560514714e-03       4.278372720180e+00 
       9.396771747065e-03       4.302862151520e+00 
       9.520031799123e-03       4.326712619035e+00 
       9.643339537395e-03       4.349934019530e+00 
       9.766693900965e-03       4.372532473867e+00 
       9.890093897566e-03       4.394518794261e+00 
       1.001353859994e-02       4.415901058501e+00 
       1.013702714247e-02       4.436685007671e+00 
       1.026055871802e-02       4.456880034244e+00 
       1.038413257505e-02       4.476493432986e+00 
       1.050774801489e-02       4.495536059494e+00 
       1.063140438921e-02       4.514008560083e+00 
       1.075510109773e-02       4.531926203128e+00 
       1.087883758598e-02       4.549291111195e+00 
       1.100261334330e-02       4.566110004719e+00 
       1.112642790095e-02       4.582391597619e+00 
       1.125028083038e-02       4.598143184607e+00 
       1.137417174154e-02       4.613370234674e+00 
       1.149810028141e-02       4.628081092685e+00 
       1.162206613256e-02       4.642278912473e+00 
       1.174606901183e-02       4.655973205415e+00 
       1.187010866910e-02       4.669168986983e+00 
       1.199418488617e-02       4.681872991899e+00 
       1.211829747567e-02       4.694089679019e+00 
       1.224244628010e-02       4.705827338432e+00 
       1.236663117090e-02       4.717090257014e+00 
       1.249085204757e-02       4.727884160698e+00 
       1.261510883696e-02       4.738216162614e+00 
       1.273940149246e-02       4.748089152873e+00 
       1.286372999336e-02       4.757513115161e+00 
       1.298809434421e-02       4.766489966607e+00 
       1.311249457428e-02       4.775025334010e+00 
       1.323693073698e-02       4.783125335076e+00 
       1.336140290942e-02       4.790796175834e+00 
       1.348591119193e-02       4.798043607995e+00 
       1.361045570765e-02       4.804871189843e+00 
       1.373503660222e-02       4.811284804148e+00 
       1.385965404336e-02       4.817290302045e+00 
       1.398430822064e-02       4.822891737823e+00 
       1.410899934517e-02       4.828095624943e+00 
       1.423372764937e-02       4.832905071730e+00 
       1.435849338678e-02       4.837326986907e+00 
       1.448329683185e-02       4.841363379246e+00 
       1.460813827981e-02       4.845023921104e+00 
       1.473301804651e-02       4.848312068124e+00 
       1.485793646835e-02       4.851230876944e+00 
       1.498289390217e-02       4.853784041693e+00 
       1.510789072521e-02       4.855982132126e+00 
       1.523292733507e-02       4.857824547547e+00 
       1.535800414968e-02       4.859317356475e+00 
       1.548312160735e-02       4.860469061885e+00 
       1.560828016672e-02       4.861281769097e+00 
       1.573348030688e-02       4.861755520307e+00 
       1.585872252741e-02       4.861900493813e+00 
       1.598400734844e-02       4.861721693969e+00 
       1.610933531079e-02       4.861219775730e+00 
       1.623470697605e-02       4.860405161124e+00 
       1.636012292677e-02       4.859279543686e+00 
       1.648558376655e-02       4.857844249752e+00 
       1.661109012028e-02       4.856107982621e+00 
       1.673664263428e-02       4.854072490714e+00 
       1.686224197652e-02       4.851745831758e+00 
       1.698788883685e-02       4.849130324834e+00 
       1.711358392725e-02       4.846226464134e+00 
       1.723932798205e-02       4.843045432152e+00 
       1.736512175823e-02       4.839586452174e+00 
       1.749096603570e-02       4.835855831266e+00 
       1.761686161762e-02       4.831855031818e+00 
       1.774280933070e-02       4.827598876638e+00 
       1.786881002554e-02       4.823076795295e+00 
       1.799486457700e-02       4.818300847083e+00 
       1.812097388457e-02       4.813274737078e+00 
       1.824713887274e-02       4.807998345196e+00 
       1.837336049141e-02       4.802482313111e+00 
       1.849963971633e-02       4.796726069989e+00 
       1.862597754953e-02       4.790731176305e+00 
       1.875237501977e-02       4.784507407715e+00 
       1.887883318301e-02       4.778054947453e+00 
       1.900535312294e-02       4.771382502097e+00 
       1.913193595143e-02       4.764486244274e+00 
       1.925858280911e-02       4.757376101342e+00 
       1.938529486592e-02       4.750049207676e+00 
       1.951207332163e-02       4.742516692806e+00 
       1.963891940648e-02       4.734775861376e+00 
       1.976583438176e-02       4.726842000963e+00 
       1.989281954046e-02       4.718698532153e+00 
       2.001987620788e-02       4.710364699783e+00 
       2.014700574237e-02       4.701843392366e+00 
       2.027420953594e-02       4.693129784381e+00 
       2.040148901504e-02       4.684233445153e+00 
       2.052884564128e-02       4.675155564123e+00 
       2.065628091220e-02       4.665902193759e+00 
       2.078379636203e-02       4.656476054873e+00 
       2.091139356253e-02       4.646877862606e+00 
       2.103907412384e-02       4.637109774527e+00 
       2.116683969530e-02       4.627178824321e+00 
       2.129469196640e-02       4.617084447365e+00 
       2.142263266765e-02       4.606824969445e+00 
       2.155066357157e-02       4.596425814815e+00 
       2.167878649364e-02       4.585876815136e+00 
       2.180700329333e-02       4.575164336445e+00 
       2.193531587513e-02       4.564317321259e+00 
       2.206372618964e-02       4.553320613412e+00 
       2.219223623466e-02       4.542188418042e+00 
       2.232084805636e-02       4.530924965779e+00 
       2.244956375042e-02       4.519523346621e+00 
       2.257838546331e-02       4.507987641516e+00 
       2.270731539347e-02       4.496332448467e+00 
       2.283635579267e-02       4.484547130486e+00 
       2.296550896730e-02       4.472632970502e+00 
       2.309477727980e-02       4.460618737729e+00 
       2.322416315002e-02       4.448479299927e+00 
       2.335366905675e-02       4.436227317395e+00 
       2.348329753921e-02       4.423860536498e+00 
       2.361305119861e-02       4.411387751146e+00 
       2.374293269977e-02       4.398809410754e+00 
       2.387294477280e-02       4.386134829047e+00 
       2.400309021484e-02       4.373351343365e+00 
       2.413337189178e-02       4.360480711473e+00 
       2.426379274017e-02       4.347512860134e+00 
       2.439435576908e-02       4.334443022166e+00 
       2.452506406208e-02       4.321293412952e+00 
       2.465592077927e-02       4.308050637224e+00 
       2.478692915937e-02       4.294734378970e+00 
       2.491809252189e-02       4.281322615723e+00 
       2.504941426942e-02       4.267830344391e+00 
       2.518089788986e-02       4.254284474212e+00 
       2.531254695892e-02       4.240634057878e+00 
       2.544436514254e-02       4.226926462664e+00 
       2.557635619949e-02       4.213134101601e+00 
       2.570852398403e-02       4.199296064770e+00 
       2.584087244865e-02       4.185383180626e+00 
       2.597340564696e-02       4.171388857848e+00 
       2.610612773662e-02       4.157352004022e+00 
       2.623904298241e-02       4.143248413642e+00 
       2.637215575941e-02       4.129088319868e+00 
       2.650547055630e-02       4.114878901201e+00 
       2.663899197875e-02       4.100599639404e+00 
       2.677272475300e-02       4.086286902986e+00 
       2.690667372948e-02       4.071920468889e+00 
       2.704084388668e-02       4.057496107617e+00 
       2.717524033506e-02       4.043032643428e+00 
       2.730986832117e-02       4.028534720689e+00 
       2.744473323193e-02       4.013975468580e+00 
       2.757984059904e-02       3.999386977860e+00 
       2.771519610360e-02       3.984763304607e+00 
       2.785080558089e-02       3.970109768027e+00 
       2.798667502534e-02       3.955399702058e+00 
       2.812281059571e-02       3.940675501297e+00 
       2.825921862046e-02       3.925905488673e+00 
       2.839590560337e-02       3.911117798351e+00 
       2.853287822937e-02       3.896294887735e+00 
       2.867014337060e-02       3.881440228245e+00 
       2.880770809274e-02       3.866567271014e+00 
       2.894557966159e-02       3.851667059320e+00 
       2.908376554997e-02       3.836756575558e+00 
       2.922227344485e-02       3.821815169555e+00 
       2.936111125486e-02       3.806855324826e+00 
       2.950028711803e-02       3.791880833518e+00 
       2.963980940998e-02       3.776882192113e+00 
       2.977968675242e-02       3.761868488223e+00 
       2.991992802197e-02       3.746846274125e+00 
       3.006054235952e-02       3.731812475382e+00 
       3.020153917986e-02       3.716766725425e+00 
       3.034292818185e-02       3.701704652433e+00 
       3.048471935906e-02       3.686639251651e+00 
       3.062692301082e-02       3.671551802985e+00 
       3.076954975391e-02       3.656483463076e+00 
       3.091261053472e-02       3.641398716098e+00 
       3.105611664203e-02       3.626306109483e+00 
       3.120007972039e-02       3.611211950972e+00 
       3.134451178417e-02       3.596100012231e+00 
       3.148942523232e-02       3.581003598024e+00 
       3.163483286384e-02       3.565905762841e+00 
       3.178074789403e-02       3.550810655622e+00 
       3.192718397158e-02       3.535703657864e+00 
       3.207415519655e-02       3.520607099492e+00 
       3.222167613928e-02       3.505514594144e+00 
       3.236976186026e-02       3.490416838617e+00 
       3.251842793110e-02       3.475345893787e+00 
       3.266769045662e-02       3.460240085901e+00 
       3.281756609808e-02       3.445185549872e+00 
       3.296807209781e-02       3.430109288758e+00 
       3.311922630503e-02       3.415035066201e+00 
       3.327104720329e-02       3.399992572492e+00 
       3.342355393934e-02       3.384943492235e+00 
       3.357676635374e-02       3.369894031700e+00 
       3.373070501315e-02       3.354870603312e+00 
       3.388539124463e-02       3.339850896645e+00 
       3.404084717188e-02       3.324839537756e+00 
       3.419709575366e-02       3.309836157924e+00 
       3.435416082463e-02       3.294848320410e+00 
       3.451206713858e-02       3.279881211275e+00 
       3.467084041444e-02       3.264910318329e+00 
       3.483050738512e-02       3.249942461136e+00 
       3.499109584951e-02       3.234990375055e+00 
       3.515263472782e-02       3.220070525737e+00 
       3.531515412053e-02       3.205148423641e+00 
       3.547868537122e-02       3.190239721517e+00 
       3.564326113364e-02       3.175342432111e+00 
       3.580891544335e-02       3.160457566746e+00 
       3.597568379423e-02       3.145580031634e+00 
       3.614360322038e-02       3.130729180630e+00 
       3.631271238380e-02       3.115872756896e+00 
       3.648305166828e-02       3.101028823594e+00 
       3.665466328025e-02       3.086210786728e+00 
       3.682759135694e-02       3.071405588705e+00 
       3.700188208264e-02       3.056597322239e+00 
       3.717758381384e-02       3.041801919904e+00 
       3.735474721393e-02       3.027019871053e+00 
       3.753342539844e-02       3.012238320401e+00 
       3.771367409180e-02       2.997473687325e+00 
       3.789555179669e-02       2.982725301880e+00 
       3.807911997726e-02       2.967970968101e+00 
       3.826444325751e-02       2.953236519903e+00 
       3.845158963647e-02       2.938503144148e+00 
       3.864063072175e-02       2.923776919188e+00 
       3.883164198345e-02       2.909051069680e+00 
       3.902470303062e-02       2.894330151043e+00 
       3.921989791253e-02       2.879612520229e+00 
       3.941731544758e-02       2.864893566445e+00 
       3.961704958289e-02       2.850176746779e+00 
       3.981919978798e-02       2.835461827722e+00 
       4.002387148648e-02       2.820748135761e+00 
       4.023117653032e-02       2.806023577244e+00 
       4.044123372141e-02       2.791291564477e+00 
       4.065416938658e-02       2.776559014265e+00 
       4.087011801240e-02       2.761815728557e+00 
       4.108922294733e-02       2.747064759560e+00 
       4.131163717982e-02       2.732291850438e+00 
       4.153752420241e-02       2.717510731941e+00 
       4.176705897322e-02       2.702717138711e+00 
       4.200042898802e-02       2.687896245030e+00 
       4.223783547839e-02       2.673059570337e+00 
       4.247949475379e-02       2.658194749163e+00 
       4.272563970839e-02       2.643300780202e+00 
       4.297652151713e-02       2.628377734327e+00 
       4.323241154967e-02       2.613409882555e+00 
       4.349360353592e-02       2.598416909663e+00 
       4.376041602319e-02       2.583372467279e+00 
       4.403319517213e-02       2.568284626405e+00 
       4.431231794788e-02       2.553146005229e+00 
       4.459819577357e-02       2.537948191994e+00 
       4.489127872701e-02       2.522688618425e+00 
       4.519206037738e-02       2.507352376054e+00 
       4.550108337953e-02       2.491951838777e+00 
       4.581894596815e-02       2.476472654946e+00 
       4.614630952536e-02       2.460892439224e+00 
       4.648390743429e-02       2.445201616632e+00 
       4.683255547970e-02       2.429420342800e+00 
       4.719316411816e-02       2.413507847617e+00 
       4.756675301773e-02       2.397471509111e+00 
       4.795446836503e-02       2.381301263590e+00 
       4.835760356241e-02       2.364981661999e+00 
       4.877762409663e-02       2.348468466870e+00 
       4.921619756285e-02       2.331743365092e+00 
       4.967523008562e-02       2.314797494679e+00 
       5.015691070604e-02       2.297608846121e+00 
       5.066376571717e-02       2.280134941084e+00 
       5.119872544391e-02       2.262326429349e+00 
       5.176520658853e-02       2.244165065480e+00 
       5.236721399178e-02       2.225578715414e+00 
       5.300946644312e-02       2.206494841961e+00 
       5.369755187007e-02       2.186826968348e+00 
       5.443811751592e-02       2.166471984646e+00 
       5.523909986870e-02       2.145281436537e+00 
       5.610999570581e-02       2.123069503236e+00 
       5.706216694303e-02       2.099582494047e+00 
       5.810915312358e-02       2.074505818313e+00 
