# dimensionless total [l(l+1)/2pi] C_l's
# for l=2 to 3000, i.e. number of multipoles equal to 2999
#
# -> if you prefer output in CAMB/HealPix/LensPix units/order, set 'format' to 'camb' in input file
# -> if you don't want to see such a header, set 'headers' to 'no' in input file
# -> for CMB lensing (phi), these are C_l^phi-phi for the lensing potential.
#    Remember the conversion factors:
#    C_l^dd (deflection) = l(l+1) C_l^phi-phi
#    C_l^gg (shear/convergence) = 1/4 (l(l+1))^2 C_l^phi-phi
#
# 1:l     2:TT                     3:EE                     4:TE                     5:BB                     6:phiphi                 7:TPhi                   8:Ephi               
    2       1.513644206608e-10       4.793957246242e-15       3.799584279199e-13       0.000000000000e+00       8.308965943931e-09       5.059134147839e-10      -2.012666350282e-12 
    3       1.417613333763e-10       6.054197337815e-15       4.281365552496e-13       0.000000000000e+00       5.129825196713e-09       3.573078550259e-10      -1.512223795106e-12 
    4       1.331017437752e-10       5.148242525537e-15       3.998184220294e-13       0.000000000000e+00       3.573427166796e-09       2.695809373536e-10      -9.767956869578e-13 
    5       1.266642488230e-10       3.372218677418e-15       3.391767526334e-13       0.000000000000e+00       2.668754789994e-09       2.123141546460e-10      -5.310304124545e-13 
    6       1.222134156651e-10       1.854988909115e-15       2.715884271392e-13       0.000000000000e+00       2.084695922272e-09       1.723357928380e-10      -2.072593602765e-13 
    7       1.192623736273e-10       9.970971432065e-16       2.117234204162e-13       0.000000000000e+00       1.680645552549e-09       1.430926922612e-10      -5.088547915850e-15 
    8       1.174523351676e-10       6.484127557720e-16       1.659078926251e-13       0.000000000000e+00       1.387207827348e-09       1.209778869251e-10       9.391000338610e-14 
    9       1.164847447005e-10       5.208368460244e-16       1.354187737070e-13       0.000000000000e+00       1.166715230575e-09       1.038406339342e-10       1.170793613206e-13 
   10       1.161121485065e-10       4.388721660793e-16       1.186545752637e-13       0.000000000000e+00       9.966404339094e-10       9.028085567542e-11       9.395932122055e-14 
   11       1.162382148556e-10       3.648806574999e-16       1.125835770692e-13       0.000000000000e+00       8.432507169142e-10       7.968631762101e-11       5.145257157263e-14 
   12       1.167170756787e-10       3.171934039934e-16       1.137798184138e-13       0.000000000000e+00       7.367214034958e-10       7.043669550936e-11       8.506041731407e-15 
   13       1.174790052971e-10       3.043672387397e-16       1.192695287817e-13       0.000000000000e+00       6.492705296077e-10       6.289407920912e-11      -2.257343730422e-14 
   14       1.184510908167e-10       3.151764012206e-16       1.268691296385e-13       0.000000000000e+00       5.765110376368e-10       5.630770879878e-11      -3.807937681212e-14 
   15       1.196309663482e-10       3.376036263627e-16       1.351602403345e-13       0.000000000000e+00       5.152668256795e-10       5.077112428961e-11      -3.911740340872e-14 
   16       1.209590229673e-10       3.710532216179e-16       1.435388938096e-13       0.000000000000e+00       4.631958317709e-10       4.602139595138e-11      -3.059012431128e-14 
   17       1.224249768467e-10       4.221541118005e-16       1.519067738865e-13       0.000000000000e+00       4.185287642831e-10       4.189337506636e-11      -1.835715783628e-14 
   18       1.239808016409e-10       4.958429954088e-16       1.605044337775e-13       0.000000000000e+00       3.797622925089e-10       3.827099392920e-11      -7.624561712725e-15 
   19       1.256380174724e-10       5.918733941624e-16       1.695726255573e-13       0.000000000000e+00       3.462780313580e-10       3.511457666269e-11      -8.584095743166e-16 
   20       1.273754082739e-10       7.076988461494e-16       1.792914729792e-13       0.000000000000e+00       3.167883507957e-10       3.233031551244e-11       6.145658512337e-16 
   21       1.291992173421e-10       8.427152011959e-16       1.896145181668e-13       0.000000000000e+00       2.908300548076e-10       2.986679387810e-11      -2.207654588824e-15 
   22       1.310910293627e-10       9.965739765512e-16       2.003199776078e-13       0.000000000000e+00       2.677812785980e-10       2.764747413653e-11      -7.115581422664e-15 
   23       1.330488656925e-10       1.169042277488e-15       2.109684375447e-13       0.000000000000e+00       2.473251643819e-10       2.564969997267e-11      -1.224093338437e-14 
   24       1.350556558705e-10       1.359842898283e-15       2.210168760940e-13       0.000000000000e+00       2.289891864814e-10       2.384582885699e-11      -1.575958072774e-14 
   25       1.371222719671e-10       1.569520705654e-15       2.301944568920e-13       0.000000000000e+00       2.125576200308e-10       2.222836282000e-11      -1.704054640390e-14 
   26       1.392493121831e-10       1.799085944837e-15       2.383256197088e-13       0.000000000000e+00       1.977329145853e-10       2.077765312945e-11      -1.603171310338e-14 
   27       1.414225983952e-10       2.050595965585e-15       2.453428304518e-13       0.000000000000e+00       1.843371183014e-10       1.946535086904e-11      -1.354549679519e-14 
   28       1.436153075690e-10       2.326422982216e-15       2.512407067614e-13       0.000000000000e+00       1.721391995185e-10       1.825344677463e-11      -1.074003915640e-14 
   29       1.458376074141e-10       2.628013364368e-15       2.560847115071e-13       0.000000000000e+00       1.610767948765e-10       1.714077598313e-11      -8.251119772093e-15 
   30       1.481005057670e-10       2.956510458493e-15       2.599981245068e-13       0.000000000000e+00       1.510310666192e-10       1.612913480700e-11      -6.645399404824e-15 
   31       1.504039951671e-10       3.312987438190e-15       2.631060396797e-13       0.000000000000e+00       1.417970517642e-10       1.521074688090e-11      -6.413642428519e-15 
   32       1.527504673613e-10       3.698363581469e-15       2.653528608744e-13       0.000000000000e+00       1.333269871018e-10       1.437519938430e-11      -7.275274877160e-15 
   33       1.551334769056e-10       4.113442111048e-15       2.666152271219e-13       0.000000000000e+00       1.255608942171e-10       1.360313948770e-11      -8.596750732785e-15 
   34       1.575397538737e-10       4.558979546005e-15       2.667519708765e-13       0.000000000000e+00       1.183900096995e-10       1.287158399935e-11      -9.698450950595e-15 
   35       1.599737456368e-10       5.035883224904e-15       2.656208010403e-13       0.000000000000e+00       1.117775711229e-10       1.218243996246e-11      -1.034724365482e-14 
   36       1.624398960987e-10       5.545074731445e-15       2.630647448008e-13       0.000000000000e+00       1.056704775120e-10       1.154313440486e-11      -1.042962956563e-14 
   37       1.649376572775e-10       6.087420974553e-15       2.589401919470e-13       0.000000000000e+00       9.998919071532e-11       1.095794492265e-11      -9.879876239031e-15 
   38       1.674694918607e-10       6.663687699434e-15       2.532332690059e-13       0.000000000000e+00       9.471898499142e-11       1.042498529213e-11      -8.879794750356e-15 
   39       1.700342846970e-10       7.274563672965e-15       2.459826077646e-13       0.000000000000e+00       8.984309509547e-11       9.937667743589e-12      -7.729809483319e-15 
   40       1.726243624729e-10       7.920667392210e-15       2.372499900213e-13       0.000000000000e+00       8.531496087585e-11       9.485058213039e-12      -6.801312995193e-15 
   41       1.752298275432e-10       8.602590001459e-15       2.270973875813e-13       0.000000000000e+00       8.107443476731e-11       9.055174610012e-12      -6.434290504919e-15 
   42       1.778548300818e-10       9.321051611175e-15       2.155057225270e-13       0.000000000000e+00       7.710899620376e-11       8.647020645701e-12      -6.579223972837e-15 
   43       1.805054910705e-10       1.007678832874e-14       2.024320205959e-13       0.000000000000e+00       7.340809099896e-11       8.261875888848e-12      -7.046238957759e-15 
   44       1.831850648530e-10       1.087050805769e-14       1.878312229182e-13       0.000000000000e+00       6.994476355300e-11       7.899883187667e-12      -7.599179039807e-15 
   45       1.858946365228e-10       1.170285237206e-14       1.716567154433e-13       0.000000000000e+00       6.668527500856e-11       7.560325325296e-12      -8.011634343867e-15 
   46       1.886361986740e-10       1.257427145826e-14       1.538627574469e-13       0.000000000000e+00       6.362446276162e-11       7.242792969821e-12      -8.261651917139e-15 
   47       1.914099632246e-10       1.348510968443e-14       1.344023087773e-13       0.000000000000e+00       6.075873156328e-11       6.946193117723e-12      -8.390435560281e-15 
   48       1.942131840091e-10       1.443563597233e-14       1.132260629169e-13       0.000000000000e+00       5.807538900899e-11       6.668323461851e-12      -8.449101241067e-15 
   49       1.970399026171e-10       1.542604043740e-14       9.028221693070e-14       0.000000000000e+00       5.555196926471e-11       6.405792602167e-12      -8.499244252889e-15 
   50       1.998837086131e-10       1.645646228379e-14       6.552259034608e-14       0.000000000000e+00       5.316299177538e-11       6.155005497499e-12      -8.599499183039e-15 
   51       2.027474931195e-10       1.752709021029e-14       3.892347355101e-14       0.000000000000e+00       5.090396913265e-11       5.915620276462e-12      -8.759603199652e-15 
   52       2.056359034004e-10       1.863808345068e-14       1.047004080043e-14       0.000000000000e+00       4.877274689057e-11       5.687891818158e-12      -8.974844131528e-15 
   53       2.085524502307e-10       1.978954105674e-14      -1.984943701635e-14       0.000000000000e+00       4.676231949538e-11       5.471659563727e-12      -9.238888037852e-15 
   54       2.114993955885e-10       2.098150000914e-14      -5.204352365346e-14       0.000000000000e+00       4.486050389309e-11       5.266317856071e-12      -9.543687204817e-15 
   55       2.144780567673e-10       2.221394785028e-14      -8.611815150380e-14       0.000000000000e+00       4.305365103821e-11       5.071076392957e-12      -9.879038689949e-15 
   56       2.174900644696e-10       2.348686858515e-14      -1.220785363652e-13       0.000000000000e+00       4.133960786671e-11       4.885885303472e-12      -1.023134230302e-14 
   57       2.205362205348e-10       2.480020487442e-14      -1.599276179709e-13       0.000000000000e+00       3.971740365351e-11       4.710687928126e-12      -1.058437292979e-14 
   58       2.236160149091e-10       2.615384321710e-14      -1.996654546927e-13       0.000000000000e+00       3.818332883941e-11       4.545132882328e-12      -1.091949963191e-14 
   59       2.267275295620e-10       2.754761262734e-14      -2.412891783009e-13       0.000000000000e+00       3.673076595952e-11       4.388555699236e-12      -1.121558002851e-14 
   60       2.298673424019e-10       2.898128331110e-14      -2.847929487250e-13       0.000000000000e+00       3.535002057172e-11       4.239960472603e-12      -1.144885467781e-14 
   61       2.330319854190e-10       3.045451457318e-14      -3.301687596193e-13       0.000000000000e+00       3.403100960681e-11       4.098292238816e-12      -1.159852665521e-14 
   62       2.362229189440e-10       3.196668786809e-14      -3.774091687027e-13       0.000000000000e+00       3.277241404976e-11       3.963367096789e-12      -1.166520272334e-14 
   63       2.394425084943e-10       3.351703375693e-14      -4.265051027834e-13       0.000000000000e+00       3.157429000515e-11       3.835119238499e-12      -1.165642289682e-14 
   64       2.426925232289e-10       3.510467649435e-14      -4.774450431502e-13       0.000000000000e+00       3.043531570649e-11       3.713319681206e-12      -1.158141379471e-14 
   65       2.459740891800e-10       3.672863109439e-14      -5.302150073280e-13       0.000000000000e+00       2.935271310851e-11       3.597567135228e-12      -1.145116340912e-14 
   66       2.492876424831e-10       3.838780039632e-14      -5.847985308338e-13       0.000000000000e+00       2.832216947942e-11       3.487278871726e-12      -1.127849587379e-14 
   67       2.526328826077e-10       4.008097213048e-14      -6.411766489322e-13       0.000000000000e+00       2.733775899323e-11       3.381681590489e-12      -1.107814623262e-14 
   68       2.560093148872e-10       4.180692749876e-14      -6.993278756366e-13       0.000000000000e+00       2.639352293046e-11       3.280014416055e-12      -1.086421531672e-14 
   69       2.594181103043e-10       4.356479902301e-14      -7.592281765521e-13       0.000000000000e+00       2.548875735671e-11       3.182206063060e-12      -1.064176839301e-14 
   70       2.628605402598e-10       4.535378026823e-14      -8.208509577296e-13       0.000000000000e+00       2.462366093476e-11       3.088319107344e-12      -1.041366067656e-14 
   71       2.663373894875e-10       4.717302066293e-14      -8.841670499478e-13       0.000000000000e+00       2.379773577229e-11       2.998346357544e-12      -1.018301422484e-14 
   72       2.698489243562e-10       4.902162541698e-14      -9.491446903982e-13       0.000000000000e+00       2.300975143377e-11       2.912207148153e-12      -9.953225701375e-15 
   73       2.733948611722e-10       5.089865543949e-14      -1.015749504371e-12       0.000000000000e+00       2.225770895245e-11       2.829743632585e-12      -9.727974139453e-15 
   74       2.769743344815e-10       5.280312725673e-14      -1.083944486938e-12       0.000000000000e+00       2.153880484228e-11       2.750717076228e-12      -9.511228705781e-15 
   75       2.805858653721e-10       5.473401292993e-14      -1.153689984643e-12       0.000000000000e+00       2.084939510982e-11       2.674804149510e-12      -9.307256464173e-15 
   76       2.842280165854e-10       5.669019455660e-14      -1.224945222392e-12       0.000000000000e+00       2.018589833381e-11       2.601681114356e-12      -9.119859367164e-15 
   77       2.879015658375e-10       5.867031837701e-14      -1.297673246075e-12       0.000000000000e+00       1.954777457829e-11       2.531302301334e-12      -8.949907435729e-15 
   78       2.916076730662e-10       6.067291379050e-14      -1.371836852171e-12       0.000000000000e+00       1.893502683941e-11       2.463665915332e-12      -8.797367758078e-15 
   79       2.953472114521e-10       6.269643541488e-14      -1.447397135651e-12       0.000000000000e+00       1.834729370788e-11       2.398728773392e-12      -8.662027443405e-15 
   80       2.991207498037e-10       6.473926207306e-14      -1.524313503348e-12       0.000000000000e+00       1.778383263730e-11       2.336404400099e-12      -8.543485580256e-15 
   81       3.029285349437e-10       6.679969577956e-14      -1.602543687331e-12       0.000000000000e+00       1.724350321239e-11       2.276561122964e-12      -8.441145194903e-15 
   82       3.067704740948e-10       6.887596072713e-14      -1.682043758273e-12       0.000000000000e+00       1.672475041730e-11       2.219020167812e-12      -8.354205209714e-15 
   83       3.106461172655e-10       7.096620227331e-14      -1.762768138824e-12       0.000000000000e+00       1.622558790388e-11       2.163553754164e-12      -8.281652401527e-15 
   84       3.145549527855e-10       7.306854699351e-14      -1.844669002551e-12       0.000000000000e+00       1.574407977580e-11       2.109940115939e-12      -8.222221933975e-15 
   85       3.184973887879e-10       7.518129649897e-14      -1.927694326990e-12       0.000000000000e+00       1.527991435969e-11       2.058143215699e-12      -8.174289051815e-15 
   86       3.224739028979e-10       7.730276404106e-14      -2.011789540845e-12       0.000000000000e+00       1.483306186820e-11       2.008159469726e-12      -8.135944604407e-15 
   87       3.264847313807e-10       7.943121631423e-14      -2.096898112721e-12       0.000000000000e+00       1.440329085077e-11       1.959962537709e-12      -8.105016431889e-15 
   88       3.305298567907e-10       8.156487346896e-14      -2.182961554170e-12       0.000000000000e+00       1.399015984031e-11       1.913502374864e-12      -8.079060795387e-15 
   89       3.346089956199e-10       8.370190912462e-14      -2.269919422732e-12       0.000000000000e+00       1.359300899993e-11       1.868704284040e-12      -8.055353807210e-15 
   90       3.387215859474e-10       8.584045038238e-14      -2.357709324984e-12       0.000000000000e+00       1.321095176964e-11       1.825467967839e-12      -8.030882861059e-15 
   91       3.428667750878e-10       8.797857783812e-14      -2.446266919581e-12       0.000000000000e+00       1.284286651298e-11       1.783666580726e-12      -8.002338062227e-15 
   92       3.470434072403e-10       9.011432559534e-14      -2.535525920302e-12       0.000000000000e+00       1.248738816381e-11       1.743145781143e-12      -7.966103657805e-15 
   93       3.512503710769e-10       9.224571421519e-14      -2.625419306924e-12       0.000000000000e+00       1.214323147821e-11       1.703762126730e-12      -7.919112838030e-15 
   94       3.554877291347e-10       9.437085520745e-14      -2.715883159547e-12       0.000000000000e+00       1.181023454735e-11       1.665506924456e-12      -7.861577816918e-15 
   95       3.597557362388e-10       9.648786235199e-14      -2.806853409265e-12       0.000000000000e+00       1.148845751488e-11       1.628399341683e-12      -7.794656421823e-15 
   96       3.640544873868e-10       9.859482062070e-14      -2.898264701080e-12       0.000000000000e+00       1.117786120527e-11       1.592448320402e-12      -7.719628545517e-15 
   97       3.683839103383e-10       1.006897866425e-13      -2.990050413529e-12       0.000000000000e+00       1.087830332240e-11       1.557652169401e-12      -7.637899427754e-15 
   98       3.727437582048e-10       1.027707891683e-13      -3.082142678305e-12       0.000000000000e+00       1.058953464812e-11       1.523998156438e-12      -7.551002936819e-15 
   99       3.771336020394e-10       1.048358295362e-13      -3.174472399881e-12       0.000000000000e+00       1.031119524088e-11       1.491462100409e-12      -7.460604851093e-15 
  100       3.815528234265e-10       1.068828821363e-13      -3.266969275137e-12       0.000000000000e+00       1.004281063428e-11       1.460007963518e-12      -7.368506140604e-15 
  101       3.860006070716e-10       1.089098948759e-13      -3.359561812985e-12       0.000000000000e+00       9.783788035676e-12       1.429587443448e-12      -7.276646248587e-15 
  102       3.904759333908e-10       1.109147896444e-13      -3.452177353989e-12       0.000000000000e+00       9.533412524757e-12       1.400139565527e-12      -7.187106373043e-15 
  103       3.949775711006e-10       1.128954627784e-13      -3.544742089990e-12       0.000000000000e+00       9.290843252148e-12       1.371590274904e-12      -7.102112748293e-15 
  104       3.995043317508e-10       1.148498365618e-13      -3.637181636818e-12       0.000000000000e+00       9.055303681909e-12       1.343869339570e-12      -7.023552362802e-15 
  105       4.040558884413e-10       1.167760206480e-13      -3.729422798254e-12       0.000000000000e+00       8.826689774805e-12       1.316964538298e-12      -6.951438539731e-15 
  106       4.086320544024e-10       1.186721734118e-13      -3.821392078046e-12       0.000000000000e+00       8.605037257277e-12       1.290874066474e-12      -6.885243231502e-15 
  107       4.132325264497e-10       1.205364538751e-13      -3.913015173496e-12       0.000000000000e+00       8.390333265067e-12       1.265589663924e-12      -6.824364022694e-15 
