# Matter power spectrum P(k) at redshift z=99
# for k=1.00899e-05 to 203.102 h/Mpc,
# number of wavenumbers equal to 845
#    1:k (h/Mpc)              2:P (Mpc/h)^3        
       1.008985923385e-05       8.603056043866e-03 
       2.251775554930e-05       1.859286327415e-02 
       3.498636120606e-05       2.838332926920e-02 
       4.752690065129e-05       3.808728408884e-02 
       6.017107953816e-05       4.776691627447e-02 
       7.295134796828e-05       5.746758426511e-02 
       8.590117159567e-05       6.722724042668e-02 
       9.905531396721e-05       7.708025823724e-02 
       1.124501335013e-04       8.705935952129e-02 
       1.261238985365e-04       9.719675820693e-02 
       1.401171238971e-04       1.075249321742e-01 
       1.544729323969e-04       1.180772019894e-01 
       1.692374446017e-04       1.288882198376e-01 
       1.844601999509e-04       1.399943959318e-01 
       2.001946119308e-04       1.514343072611e-01 
       2.164984593225e-04       1.632490945488e-01 
       2.334344144963e-04       1.754828602754e-01 
       2.510706081659e-04       1.881830746823e-01 
       2.694812277618e-04       2.014009804591e-01 
       2.887471434300e-04       2.151920141579e-01 
       3.089565513521e-04       2.296162145713e-01 
       3.302056183397e-04       2.447386179740e-01 
       3.525991041884e-04       2.606296320333e-01 
       3.762509288441e-04       2.773653419212e-01 
       4.012846398935e-04       2.950277429263e-01 
       4.278337223492e-04       3.137048417873e-01 
       4.560416776520e-04       3.334905762969e-01 
       4.860617833901e-04       3.544845060322e-01 
       5.180564314341e-04       3.767911844638e-01 
       5.521959331310e-04       4.005191567273e-01 
       5.886566802046e-04       4.257795094460e-01 
       6.276185644258e-04       4.526838911545e-01 
       6.692615935926e-04       4.813420057293e-01 
       7.137617004578e-04       5.118585679628e-01 
       7.612858262925e-04       5.443297912523e-01 
       8.119864673565e-04       5.788395590666e-01 
       8.659959883789e-04       6.154555224145e-01 
       9.234211117495e-04       6.542253753530e-01 
       9.843380585498e-04       6.951736863527e-01 
       1.048788822721e-03       7.382995678342e-01 
       1.116778987109e-03       7.835755080604e-01 
       1.188277341859e-03       8.309474669715e-01 
       1.263217364320e-03       8.803364936211e-01 
       1.341500404014e-03       9.316496948950e-01 
       1.423000230117e-03       9.847602028788e-01 
       1.507568477514e-03       1.039532528384e+00 
       1.595040487398e-03       1.095820493673e+00 
       1.685241075052e-03       1.153471427333e+00 
       1.777989849946e-03       1.212329948049e+00 
       1.873105833493e-03       1.272241242069e+00 
       1.970411241375e-03       1.333053758801e+00 
       2.069734401352e-03       1.394621176194e+00 
       2.170911854437e-03       1.456803926958e+00 
       2.273789735608e-03       1.519470179992e+00 
       2.378224553543e-03       1.582496251282e+00 
       2.484083493407e-03       1.645766968571e+00 
       2.591244358870e-03       1.709175355412e+00 
       2.699595254824e-03       1.772622905587e+00 
       2.809034094888e-03       1.836018661442e+00 
       2.919468000394e-03       1.899279277392e+00 
       3.030812641761e-03       1.962328196762e+00 
       3.142991559685e-03       2.025095759276e+00 
       3.255935492585e-03       2.087517818247e+00 
       3.369581728141e-03       2.149536241910e+00 
       3.483873490193e-03       2.211097862039e+00 
       3.598759367421e-03       2.272154924580e+00 
       3.714192786759e-03       2.332663059711e+00 
       3.830131532053e-03       2.392583044176e+00 
       3.946537306880e-03       2.451878534217e+00 
       4.063375339396e-03       2.510517901254e+00 
       4.180614026477e-03       2.568471298395e+00 
       4.298224614140e-03       2.625713577587e+00 
       4.416180911106e-03       2.682221279462e+00 
       4.534459032436e-03       2.737973455985e+00 
       4.653037170281e-03       2.792952525521e+00 
       4.771895388998e-03       2.847142116718e+00 
       4.891015442065e-03       2.900529405628e+00 
       5.010380608463e-03       2.953102280519e+00 
       5.129975546421e-03       3.004850082962e+00 
       5.249786162607e-03       3.055765875869e+00 
       5.369799495068e-03       3.105842287311e+00 
       5.490003608392e-03       3.155075508747e+00 
       5.610387499743e-03       3.203461223507e+00 
       5.730941014549e-03       3.250996705356e+00 
       5.851654770797e-03       3.297681251466e+00 
       5.972520090970e-03       3.343515548422e+00 
       6.093528940795e-03       3.388499847085e+00 
       6.214673874059e-03       3.432636327086e+00 
       6.335947982840e-03       3.475928340508e+00 
       6.457344852562e-03       3.518378308424e+00 
       6.578858521367e-03       3.559992405275e+00 
       6.700483443346e-03       3.600775194418e+00 
       6.822214455222e-03       3.640731139765e+00 
       6.944046746129e-03       3.679867643755e+00 
       7.065975830168e-03       3.718191743570e+00 
       7.187997521452e-03       3.755708552692e+00 
       7.310107911398e-03       3.792428543741e+00 
       7.432303348035e-03       3.828358852705e+00 
       7.554580417124e-03       3.863507348139e+00 
       7.676935924931e-03       3.897880653116e+00 
       7.799366882465e-03       3.931489400901e+00 
       7.921870491067e-03       3.964342369628e+00 
       8.044444129208e-03       3.996448073364e+00 
       8.167085340379e-03       4.027815924745e+00 
       8.289791821990e-03       4.058453991935e+00 
       8.412561415158e-03       4.088373112240e+00 
       8.535392095331e-03       4.117581648492e+00 
       8.658281963652e-03       4.146088602146e+00 
       8.781229239010e-03       4.173902459253e+00 
       8.904232250708e-03       4.201035057508e+00 
       9.027289431704e-03       4.227493037905e+00 
       9.150399312368e-03       4.253285617544e+00 
       9.273560514714e-03       4.278422582232e+00 
       9.396771747065e-03       4.302912298274e+00 
       9.520031799123e-03       4.326763044440e+00 
       9.643339537395e-03       4.349984715655e+00 
       9.766693900965e-03       4.372583433259e+00 
       9.890093897566e-03       4.394570009866e+00 
       1.001353859994e-02       4.415952523302e+00 
       1.013702714247e-02       4.436736714684e+00 
       1.026055871802e-02       4.456931976606e+00 
       1.038413257505e-02       4.476545603916e+00 
       1.050774801489e-02       4.495588452343e+00 
       1.063140438921e-02       4.514061168212e+00 
       1.075510109773e-02       4.531979032254e+00 
       1.087883758598e-02       4.549344130490e+00 
       1.100261334330e-02       4.566163220020e+00 
       1.112642790095e-02       4.582445002639e+00 
       1.125028083038e-02       4.598196774544e+00 
       1.137417174154e-02       4.613423997108e+00 
       1.149810028141e-02       4.628135028574e+00 
       1.162206613256e-02       4.642333015387e+00 
       1.174606901183e-02       4.656027467909e+00 
       1.187010866910e-02       4.669223403264e+00 
       1.199418488617e-02       4.681928352016e+00 
       1.211829747567e-02       4.694144385697e+00 
       1.224244628010e-02       4.705882181890e+00 
       1.236663117090e-02       4.717145231736e+00 
       1.249085204757e-02       4.727939261192e+00 
       1.261510883696e-02       4.738271383464e+00 
       1.273940149246e-02       4.748144488783e+00 
       1.286372999336e-02       4.757568560978e+00 
       1.298809434421e-02       4.766545516869e+00 
       1.311249457428e-02       4.775080983268e+00 
       1.323693073698e-02       4.783181078396e+00 
       1.336140290942e-02       4.790852009352e+00 
       1.348591119193e-02       4.798099525991e+00 
       1.361045570765e-02       4.804927187434e+00 
       1.373503660222e-02       4.811340643747e+00 
       1.385965404336e-02       4.817346444259e+00 
       1.398430822064e-02       4.822947649995e+00 
       1.410899934517e-02       4.828151892814e+00 
       1.423372764937e-02       4.832960451864e+00 
       1.435849338678e-02       4.837383362380e+00 
       1.448329683185e-02       4.841421160872e+00 
       1.460813827981e-02       4.845081567580e+00 
       1.473301804651e-02       4.848368571750e+00 
       1.485793646835e-02       4.851285946915e+00 
       1.498289390217e-02       4.853840609046e+00 
       1.510789072521e-02       4.856037658757e+00 
       1.523292733507e-02       4.857881161942e+00 
       1.535800414968e-02       4.859373988244e+00 
       1.548312160735e-02       4.860525707052e+00 
       1.560828016672e-02       4.861338423718e+00 
       1.573348030688e-02       4.861812180417e+00 
       1.585872252741e-02       4.861957155587e+00 
       1.598400734844e-02       4.861777928989e+00 
       1.610933531079e-02       4.861276429516e+00 
       1.623470697605e-02       4.860461805393e+00 
       1.636012292677e-02       4.859336174810e+00 
       1.648558376655e-02       4.857900864121e+00 
       1.661109012028e-02       4.856164576728e+00 
       1.673664263428e-02       4.854129061071e+00 
       1.686224197652e-02       4.851802374972e+00 
       1.698788883685e-02       4.849185604956e+00 
       1.711358392725e-02       4.846284050379e+00 
       1.723932798205e-02       4.843101873883e+00 
       1.736512175823e-02       4.839641039997e+00 
       1.749096603570e-02       4.835912189149e+00 
       1.761686161762e-02       4.831911343043e+00 
       1.774280933070e-02       4.827655138232e+00 
       1.786881002554e-02       4.823130832360e+00 
       1.799486457700e-02       4.818357000256e+00 
       1.812097388457e-02       4.813327847370e+00 
       1.824713887274e-02       4.808054378239e+00 
       1.837336049141e-02       4.802537145076e+00 
       1.849963971633e-02       4.796781058814e+00 
       1.862597754953e-02       4.790787008018e+00 
       1.875237501977e-02       4.784563166863e+00 
       1.887883318301e-02       4.778110631371e+00 
       1.900535312294e-02       4.771434684165e+00 
       1.913193595143e-02       4.764541769991e+00 
       1.925858280911e-02       4.757431544163e+00 
       1.938529486592e-02       4.750104565075e+00 
       1.951207332163e-02       4.742572804079e+00 
       1.963891940648e-02       4.734831040705e+00 
       1.976583438176e-02       4.726897087796e+00 
       1.989281954046e-02       4.718753524046e+00 
       2.001987620788e-02       4.710419594518e+00 
       2.014700574237e-02       4.701898187757e+00 
       2.027420953594e-02       4.693184514216e+00 
       2.040148901504e-02       4.684288684922e+00 
       2.052884564128e-02       4.675210048384e+00 
       2.065628091220e-02       4.665956570144e+00 
       2.078379636203e-02       4.656530321373e+00 
       2.091139356253e-02       4.646923894195e+00 
       2.103907412384e-02       4.637158928074e+00 
       2.116683969530e-02       4.627232749275e+00 
       2.129469196640e-02       4.617134770135e+00 
       2.142263266765e-02       4.606878657084e+00 
       2.155066357157e-02       4.596479381251e+00 
       2.167878649364e-02       4.585930258593e+00 
       2.180700329333e-02       4.575217655018e+00 
       2.193531587513e-02       4.564369155929e+00 
       2.206372618964e-02       4.553373677343e+00 
       2.219223623466e-02       4.542241352196e+00 
       2.232084805636e-02       4.530977768620e+00 
       2.244956375042e-02       4.519576016560e+00 
       2.257838546331e-02       4.508040176981e+00 
       2.270731539347e-02       4.496384848047e+00 
       2.283635579267e-02       4.484600680411e+00 
       2.296550896730e-02       4.472685093801e+00 
       2.309477727980e-02       4.460670720975e+00 
       2.322416315002e-02       4.448531141653e+00 
       2.335366905675e-02       4.436279016294e+00 
       2.348329753921e-02       4.423914465399e+00 
       2.361305119861e-02       4.411439160479e+00 
       2.374293269977e-02       4.398869704044e+00 
       2.387294477280e-02       4.386185943999e+00 
       2.400309021484e-02       4.373409061349e+00 
       2.413337189178e-02       4.360536187225e+00 
       2.426379274017e-02       4.347563524855e+00 
       2.439435576908e-02       4.334493534526e+00 
       2.452506406208e-02       4.321341756929e+00 
       2.465592077927e-02       4.308100841914e+00 
       2.478692915937e-02       4.294784883726e+00 
       2.491809252189e-02       4.281372508846e+00 
       2.504941426942e-02       4.267880080212e+00 
       2.518089788986e-02       4.254334052110e+00 
       2.531254695892e-02       4.240683476690e+00 
       2.544436514254e-02       4.226975721770e+00 
       2.557635619949e-02       4.213183199876e+00 
       2.570852398403e-02       4.199345001682e+00 
       2.584087244865e-02       4.185428559669e+00 
       2.597340564696e-02       4.171437469445e+00 
       2.610612773662e-02       4.157404386338e+00 
       2.623904298241e-02       4.143298990755e+00 
       2.637215575941e-02       4.129136438339e+00 
       2.650547055630e-02       4.114926854004e+00 
       2.663899197875e-02       4.100649351783e+00 
       2.677272475300e-02       4.086334522503e+00 
       2.690667372948e-02       4.071966574007e+00 
       2.704084388668e-02       4.057540300043e+00 
       2.717524033506e-02       4.043079758455e+00 
       2.730986832117e-02       4.028581666986e+00 
       2.744473323193e-02       4.014034052375e+00 
       2.757984059904e-02       3.999441931670e+00 
       2.771519610360e-02       3.984809576727e+00 
       2.785080558089e-02       3.970151835134e+00 
       2.798667502534e-02       3.955443978929e+00 
       2.812281059571e-02       3.940721423397e+00 
       2.825921862046e-02       3.925948253016e+00 
       2.839590560337e-02       3.911163375965e+00 
       2.853287822937e-02       3.896340292152e+00 
       2.867014337060e-02       3.881485460383e+00 
       2.880770809274e-02       3.866612329168e+00 
       2.894557966159e-02       3.851711943842e+00 
       2.908376554997e-02       3.836801287098e+00 
       2.922227344485e-02       3.821859705459e+00 
       2.936111125486e-02       3.806899687496e+00 
       2.950028711803e-02       3.791925021308e+00 
       2.963980940998e-02       3.776926205592e+00 
       2.977968675242e-02       3.761912326028e+00 
       2.991992802197e-02       3.746888793941e+00 
       3.006054235952e-02       3.731855962686e+00 
       3.020153917986e-02       3.716805033161e+00 
       3.034292818185e-02       3.701747788349e+00 
       3.048471935906e-02       3.686681512025e+00 
       3.062692301082e-02       3.671593947330e+00 
       3.076954975391e-02       3.656526078106e+00 
       3.091261053472e-02       3.641441107434e+00 
       3.105611664203e-02       3.626346007447e+00 
       3.120007972039e-02       3.611254020478e+00 
       3.134451178417e-02       3.596141927146e+00 
       3.148942523232e-02       3.581045327350e+00 
       3.163483286384e-02       3.565947316371e+00 
       3.178074789403e-02       3.550852032923e+00 
       3.192718397158e-02       3.535745355364e+00 
       3.207415519655e-02       3.520644792164e+00 
       3.222167613928e-02       3.505554798169e+00 
       3.236976186026e-02       3.490457223949e+00 
       3.251842793110e-02       3.475389624372e+00 
       3.266769045662e-02       3.460291298525e+00 
       3.281756609808e-02       3.445226725470e+00 
       3.296807209781e-02       3.430149330347e+00 
       3.311922630503e-02       3.415073240500e+00 
       3.327104720329e-02       3.400024514104e+00 
       3.342355393934e-02       3.384978174724e+00 
       3.357676635374e-02       3.369928552860e+00 
       3.373070501315e-02       3.354909723173e+00 
       3.388539124463e-02       3.339889849752e+00 
       3.404084717188e-02       3.324878281182e+00 
       3.419709575366e-02       3.309876729487e+00 
       3.435416082463e-02       3.294893550889e+00 
       3.451206713858e-02       3.279919429198e+00 
       3.467084041444e-02       3.264948345418e+00 
       3.483050738512e-02       3.249974448149e+00 
       3.499109584951e-02       3.235028064835e+00 
       3.515263472782e-02       3.220111061842e+00 
       3.531515412053e-02       3.205185772772e+00 
       3.547868537122e-02       3.190276895412e+00 
       3.564326113364e-02       3.175380871096e+00 
       3.580891544335e-02       3.160494392821e+00 
       3.597568379423e-02       3.145616778909e+00 
       3.614360322038e-02       3.130765664555e+00 
       3.631271238380e-02       3.115909063927e+00 
       3.648305166828e-02       3.101064934663e+00 
       3.665466328025e-02       3.086246747479e+00 
       3.682759135694e-02       3.071437435657e+00 
       3.700188208264e-02       3.056632860439e+00 
       3.717758381384e-02       3.041840659779e+00 
       3.735474721393e-02       3.027057317474e+00 
       3.753342539844e-02       3.012288957499e+00 
       3.771367409180e-02       2.997511264068e+00 
       3.789555179669e-02       2.982758505635e+00 
       3.807911997726e-02       2.968010707758e+00 
       3.826444325751e-02       2.953269210092e+00 
       3.845158963647e-02       2.938537383198e+00 
       3.864063072175e-02       2.923810986946e+00 
       3.883164198345e-02       2.909083793552e+00 
       3.902470303062e-02       2.894363876994e+00 
       3.921989791253e-02       2.879646072566e+00 
       3.941731544758e-02       2.864927750954e+00 
       3.961704958289e-02       2.850209325056e+00 
       3.981919978798e-02       2.835494828840e+00 
       4.002387148648e-02       2.820777569779e+00 
       4.023117653032e-02       2.806056272229e+00 
       4.044123372141e-02       2.791325594215e+00 
       4.065416938658e-02       2.776591365979e+00 
       4.087011801240e-02       2.761847861361e+00 
       4.108922294733e-02       2.747094031700e+00 
       4.131163717982e-02       2.732323684351e+00 
       4.153752420241e-02       2.717542397105e+00 
       4.176705897322e-02       2.702748616372e+00 
       4.200042898802e-02       2.687929040919e+00 
       4.223783547839e-02       2.673090714836e+00 
       4.247949475379e-02       2.658225720161e+00 
       4.272563970839e-02       2.643331577189e+00 
       4.297652151713e-02       2.628395739897e+00 
       4.323241154967e-02       2.613440331434e+00 
       4.349360353592e-02       2.598447133507e+00 
       4.376041602319e-02       2.583402566032e+00 
       4.403319517213e-02       2.568314554120e+00 
       4.431231794788e-02       2.553175755066e+00 
       4.459819577357e-02       2.537975992423e+00 
       4.489127872701e-02       2.522716726255e+00 
       4.519206037738e-02       2.507381516541e+00 
       4.550108337953e-02       2.491980870946e+00 
       4.581894596815e-02       2.476501505522e+00 
       4.614630952536e-02       2.460921109859e+00 
       4.648390743429e-02       2.445230102535e+00 
       4.683255547970e-02       2.429448508705e+00 
       4.719316411816e-02       2.413535977063e+00 
       4.756675301773e-02       2.397499448144e+00 
       4.795446836503e-02       2.381329019234e+00 
       4.835760356241e-02       2.365009265966e+00 
       4.877762409663e-02       2.348495871131e+00 
       4.921619756285e-02       2.331780773051e+00 
       4.967523008562e-02       2.314831070437e+00 
       5.015691070604e-02       2.297635681413e+00 
       5.066376571717e-02       2.280161574386e+00 
       5.119872544391e-02       2.262352856483e+00 
       5.176520658853e-02       2.244191283112e+00 
       5.236721399178e-02       2.225604718787e+00 
       5.300946644312e-02       2.206520625090e+00 
       5.369755187007e-02       2.186852537568e+00 
       5.443811751592e-02       2.166497306591e+00 
       5.523909986870e-02       2.145307332688e+00 
       5.610999570581e-02       2.123094324144e+00 
       5.706216694303e-02       2.099611976097e+00 
       5.810915312358e-02       2.074527860188e+00 
