# dimensionless total [l(l+1)/2pi] C_l's
# for l=2 to 3000, i.e. number of multipoles equal to 2999
#
# -> if you prefer output in CAMB/HealPix/LensPix units/order, set 'format' to 'camb' in input file
# -> if you don't want to see such a header, set 'headers' to 'no' in input file
# -> for CMB lensing (phi), these are C_l^phi-phi for the lensing potential.
#    Remember the conversion factors:
#    C_l^dd (deflection) = l(l+1) C_l^phi-phi
#    C_l^gg (shear/convergence) = 1/4 (l(l+1))^2 C_l^phi-phi
#
# 1:l     2:TT                     3:EE                     4:TE                     5:BB                     6:phiphi                 7:TPhi                   8:Ephi               
    2       1.513648562328e-10       4.793934218762e-15       3.799555538733e-13       0.000000000000e+00       8.309170085730e-09       5.059235709096e-10      -2.012669074026e-12 
    3       1.417608832501e-10       6.054175890411e-15       4.281303480462e-13       0.000000000000e+00       5.129972971232e-09       3.573160370234e-10      -1.512229076049e-12 
    4       1.331013761833e-10       5.148245184514e-15       3.998151191875e-13       0.000000000000e+00       3.573541122165e-09       2.695874608864e-10      -9.768008546020e-13 
    5       1.266643091450e-10       3.372230977257e-15       3.391768933521e-13       0.000000000000e+00       2.668846343118e-09       2.123195677795e-10      -5.310331156362e-13 
    6       1.222138271397e-10       1.855001610505e-15       2.715899553108e-13       0.000000000000e+00       2.084771916169e-09       1.723404876634e-10      -2.072596779022e-13 
    7       1.192628051429e-10       9.971097945202e-16       2.117255390107e-13       0.000000000000e+00       1.680709765365e-09       1.430968680392e-10      -5.087565990743e-15 
    8       1.174527630717e-10       6.484252550581e-16       1.659103224756e-13       0.000000000000e+00       1.387263012796e-09       1.209816606058e-10       9.391125466173e-14 
    9       1.164852139741e-10       5.208487575684e-16       1.354212774198e-13       0.000000000000e+00       1.166763757400e-09       1.038441249746e-10       1.170802585540e-13 
   10       1.161125508873e-10       4.388835293546e-16       1.186573918168e-13       0.000000000000e+00       9.966837082261e-10       9.028414129266e-11       9.395964382615e-14 
   11       1.162386078788e-10       3.648920683818e-16       1.125868201565e-13       0.000000000000e+00       8.432899617577e-10       7.968943806026e-11       5.145239344401e-14 
   12       1.167174678360e-10       3.172060518813e-16       1.137835449712e-13       0.000000000000e+00       7.367568446427e-10       7.043953076954e-11       8.505535647187e-15 
   13       1.174794025644e-10       3.043823870252e-16       1.192737930922e-13       0.000000000000e+00       6.493028223630e-10       6.289664896957e-11      -2.257404786363e-14 
   14       1.184515620601e-10       3.151952186741e-16       1.268739875788e-13       0.000000000000e+00       5.765404725935e-10       5.631014645753e-11      -3.807995537086e-14 
   15       1.196315377159e-10       3.376269171388e-16       1.351657493868e-13       0.000000000000e+00       5.152938218878e-10       5.077341882216e-11      -3.911786730701e-14 
   16       1.209596113225e-10       3.710818848401e-16       1.435449107793e-13       0.000000000000e+00       4.632207111998e-10       4.602345702616e-11      -3.059049328009e-14 
   17       1.224256485376e-10       4.221897886250e-16       1.519133191612e-13       0.000000000000e+00       4.185517227537e-10       4.189521768855e-11      -1.835748749748e-14 
   18       1.239815020681e-10       4.958866732456e-16       1.605114256588e-13       0.000000000000e+00       3.797835234908e-10       3.827273075177e-11      -7.624940618911e-15 
   19       1.256387186662e-10       5.919264402047e-16       1.695800371373e-13       0.000000000000e+00       3.462977277547e-10       3.511623949892e-11      -8.588738237653e-16 
   20       1.273761841030e-10       7.077634260896e-16       1.792994097209e-13       0.000000000000e+00       3.168066590264e-10       3.233180883069e-11       6.140650689987e-16 
   21       1.292000934950e-10       8.427932010263e-16       1.896230017481e-13       0.000000000000e+00       2.908471010452e-10       2.986809638707e-11      -2.208151212823e-15 
   22       1.310919400299e-10       9.966666453675e-16       2.003288753249e-13       0.000000000000e+00       2.677971600663e-10       2.764869263713e-11      -7.116072943812e-15 
   23       1.330497705309e-10       1.169150921533e-15       2.109776029875e-13       0.000000000000e+00       2.473399768345e-10       2.565089139629e-11      -1.224142404964e-14 
   24       1.350565769733e-10       1.359969164480e-15       2.210262053767e-13       0.000000000000e+00       2.290030213941e-10       2.384694749024e-11      -1.576006439807e-14 
   25       1.371232377483e-10       1.569666684853e-15       2.302038997954e-13       0.000000000000e+00       2.125705647637e-10       2.222937456947e-11      -1.704098982555e-14 
   26       1.392503376177e-10       1.799254119086e-15       2.383351731946e-13       0.000000000000e+00       1.977450443176e-10       2.077856899835e-11      -1.603206074000e-14 
   27       1.414236850793e-10       2.050788555559e-15       2.453524460612e-13       0.000000000000e+00       1.843485009766e-10       1.946618263836e-11      -1.354573786261e-14 
   28       1.436164450928e-10       2.326641793392e-15       2.512502734862e-13       0.000000000000e+00       1.721498928562e-10       1.825419618122e-11      -1.074022586240e-14 
   29       1.458387892794e-10       2.628260384802e-15       2.560941548917e-13       0.000000000000e+00       1.610868555444e-10       1.714145766513e-11      -8.251312769720e-15 
   30       1.481017361569e-10       2.956788100912e-15       2.600074510293e-13       0.000000000000e+00       1.510405475640e-10       1.612978646473e-11      -6.645647897541e-15 
   31       1.504052892779e-10       3.313298474876e-15       2.631153254037e-13       0.000000000000e+00       1.418059973600e-10       1.521142225210e-11      -6.413977292947e-15 
   32       1.527518421929e-10       3.698710509668e-15       2.653621221488e-13       0.000000000000e+00       1.333354388993e-10       1.437591907202e-11      -7.275697524974e-15 
   33       1.551349480010e-10       4.113826862204e-15       2.666243626735e-13       0.000000000000e+00       1.255688890666e-10       1.360386685750e-11      -8.597223581703e-15 
   34       1.575413336895e-10       4.559403523917e-15       2.667607703472e-13       0.000000000000e+00       1.183975770451e-10       1.287223114643e-11      -9.698902889930e-15 
   35       1.599754392903e-10       5.036348014049e-15       2.656290861224e-13       0.000000000000e+00       1.117847387107e-10       1.218294392702e-11      -1.034762600533e-14 
   36       1.624416985966e-10       5.545582375033e-15       2.630724252415e-13       0.000000000000e+00       1.056772710733e-10       1.154348849136e-11      -1.042993994352e-14 
   37       1.649395544395e-10       6.087973991571e-15       2.589472587225e-13       0.000000000000e+00       9.999563254003e-11       1.095819788357e-11      -9.880157771884e-15 
   38       1.674714720663e-10       6.664288784262e-15       2.532396862851e-13       0.000000000000e+00       9.472509721012e-11       1.042519043032e-11      -8.880093625508e-15 
   39       1.700363434267e-10       7.275215612341e-15       2.459882725470e-13       0.000000000000e+00       8.984889949017e-11       9.937865797360e-12      -7.730160594082e-15 
   40       1.726265041037e-10       7.921373067301e-15       2.372547176883e-13       0.000000000000e+00       8.532047724206e-11       9.485273285452e-12      -6.801736432798e-15 
   41       1.752320641728e-10       8.603352193371e-15       2.271009253421e-13       0.000000000000e+00       8.107968011305e-11       9.055413334985e-12      -6.434790576494e-15 
   42       1.778571699969e-10       9.321872139853e-15       2.155078596716e-13       0.000000000000e+00       7.711398714014e-11       8.647283015470e-12      -6.579797368640e-15 
   43       1.805079343969e-10       1.007766764145e-14       2.024326319137e-13       0.000000000000e+00       7.341284373071e-11       8.262157737581e-12      -7.046876339913e-15 
   44       1.831876019082e-10       1.087144498205e-14       1.878302870708e-13       0.000000000000e+00       6.994929289686e-11       7.900175439976e-12      -7.599864068962e-15 
   45       1.858972489102e-10       1.170384420180e-14       1.716543090427e-13       0.000000000000e+00       6.668959394727e-11       7.560614733563e-12      -8.012344851161e-15 
   46       1.886388698007e-10       1.257531518765e-14       1.538589650851e-13       0.000000000000e+00       6.362858398264e-11       7.243067946540e-12      -8.262368396872e-15 
   47       1.914126820513e-10       1.348620241454e-14       1.343971937852e-13       0.000000000000e+00       6.076266747106e-11       6.946445925439e-12      -8.391144443852e-15 
   48       1.942159462748e-10       1.443677500714e-14       1.132196609117e-13       0.000000000000e+00       5.807915113098e-11       6.668551050434e-12      -8.449796238269e-15 
   49       1.970427121323e-10       1.542722338645e-14       9.027452896651e-14       0.000000000000e+00       5.555556761334e-11       6.405997492715e-12      -8.499927768768e-15 
   50       1.998865765679e-10       1.645768714865e-14       6.551358200979e-14       0.000000000000e+00       5.316643466241e-11       6.155195215678e-12      -8.600181349408e-15 
   51       2.027504306424e-10       1.752835540265e-14       3.891309471997e-14       0.000000000000e+00       5.090726458733e-11       5.915801861794e-12      -8.760292812004e-15 
   52       2.056389191528e-10       1.863938787148e-14       1.045822965976e-14       0.000000000000e+00       4.877590283329e-11       5.688070001386e-12      -8.975545613960e-15 
   53       2.085555498665e-10       1.979088420147e-14      -1.986275590606e-14       0.000000000000e+00       4.676534343292e-11       5.471836301285e-12      -9.239600637548e-15 
   54       2.115025811855e-10       2.098288207860e-14      -5.205844138750e-14       0.000000000000e+00       4.486340259324e-11       5.266491840736e-12      -9.544404146272e-15 
   55       2.144813268596e-10       2.221536967851e-14      -8.613477068543e-14       0.000000000000e+00       4.305643041863e-11       5.071243345602e-12      -9.879747757260e-15 
   56       2.174934161212e-10       2.348833095367e-14      -1.220969463957e-13       0.000000000000e+00       4.134227363593e-11       4.886040889960e-12      -1.023203121400e-14 
   57       2.205396498294e-10       2.480170829713e-14      -1.599478859672e-13       0.000000000000e+00       3.971996135055e-11       4.710828661473e-12      -1.058503103814e-14 
   58       2.236195168515e-10       2.615538789821e-14      -1.996876220927e-13       0.000000000000e+00       3.818578364365e-11       4.545256284432e-12      -1.092011828196e-14 
   59       2.267310979754e-10       2.754919841728e-14      -2.413132573237e-13       0.000000000000e+00       3.673312248911e-11       4.388660470144e-12      -1.121615292692e-14 
   60       2.298709698223e-10       2.898290966058e-14      -2.848189186852e-13       0.000000000000e+00       3.535228267050e-11       4.240046667309e-12      -1.144937828220e-14 
   61       2.330356636366e-10       3.045618058022e-14      -3.301965711246e-13       0.000000000000e+00       3.403318035137e-11       4.098361187785e-12      -1.159900010037e-14 
   62       2.362266416701e-10       3.196839263302e-14      -3.774387738988e-13       0.000000000000e+00       3.277449650039e-11       3.963420473355e-12      -1.166562620060e-14 
   63       2.394462723748e-10       3.351877649542e-14      -4.265364651661e-13       0.000000000000e+00       3.157628736027e-11       3.835158800397e-12      -1.165679726150e-14 
   64       2.426963282656e-10       3.510645656271e-14      -4.774781399720e-13       0.000000000000e+00       3.043723123618e-11       3.713347258193e-12      -1.158174062411e-14 
   65       2.459779391679e-10       3.673044801591e-14      -5.302498321135e-13       0.000000000000e+00       2.935455008391e-11       3.597584615867e-12      -1.145144506219e-14 
   66       2.492915454646e-10       3.838965388874e-14      -5.848350960042e-13       0.000000000000e+00       2.832393109803e-11       3.487288189338e-12      -1.127873555257e-14 
   67       2.526368513445e-10       4.008286213448e-14      -6.412149885391e-13       0.000000000000e+00       2.733944830006e-11       3.381684708263e-12      -1.107834804546e-14 
   68       2.560133660938e-10       4.180885414570e-14      -6.993680420671e-13       0.000000000000e+00       2.639514279963e-11       3.280013302588e-12      -1.086438418316e-14 
   69       2.594222598417e-10       4.356676240346e-14      -7.592702174846e-13       0.000000000000e+00       2.549031067783e-11       3.182202638802e-12      -1.064190943297e-14 
   70       2.628648015774e-10       4.535578036111e-14      -8.208949090153e-13       0.000000000000e+00       2.462515062883e-11       3.088315212707e-12      -1.041377901340e-14 
   71       2.663417732318e-10       4.717505732245e-14      -8.842129342281e-13       0.000000000000e+00       2.379916474421e-11       2.998343728193e-12      -1.018311493684e-14 
   72       2.698534379642e-10       4.902369835913e-14      -9.491925156748e-13       0.000000000000e+00       2.301112252243e-11       2.912207389228e-12      -9.953313770939e-15 
   73       2.733995084496e-10       5.090076422803e-14      -1.015799262528e-12       0.000000000000e+00       2.225902487830e-11       2.829748191864e-12      -9.728054399865e-15 
   74       2.769791151656e-10       5.280527128862e-14      -1.083996152217e-12       0.000000000000e+00       2.154006815243e-11       2.750727216236e-12      -9.511305785689e-15 
   75       2.805907746799e-10       5.473619142038e-14      -1.153743512067e-12       0.000000000000e+00       2.085060812071e-11       2.674820918557e-12      -9.307334729686e-15 
   76       2.842330455858e-10       5.669240657092e-14      -1.225000552105e-12       0.000000000000e+00       2.018706313358e-11       2.601705297674e-12      -9.119942744137e-15 
   77       2.879067045052e-10       5.867256301427e-14      -1.297730326755e-12       0.000000000000e+00       1.954889322652e-11       2.531334310606e-12      -8.949998852492e-15 
   78       2.916129111180e-10       6.067519024233e-14      -1.371895648776e-12       0.000000000000e+00       1.893610140116e-11       2.463705726612e-12      -8.797468893923e-15 
   79       2.953525383879e-10       6.269874297979e-14      -1.447457631587e-12       0.000000000000e+00       1.834832622753e-11       2.398775881462e-12      -8.662138583720e-15 
   80       2.991261549506e-10       6.474160017120e-14      -1.524375702715e-12       0.000000000000e+00       1.778482511116e-11       2.336457771371e-12      -8.543605466913e-15 
   81       3.029340075013e-10       6.680206396801e-14      -1.602607617236e-12       0.000000000000e+00       1.724445756014e-11       2.276619146942e-12      -8.441270871883e-15 
   82       3.067760031832e-10       6.887835871562e-14      -1.682109471224e-12       0.000000000000e+00       1.672566845222e-11       2.219080607101e-12      -8.354331863976e-15 
   83       3.106516919745e-10       7.096862994042e-14      -1.762835715196e-12       0.000000000000e+00       1.622647130184e-11       2.163613693038e-12      -8.281773199119e-15 
   84       3.145605626763e-10       7.307100435829e-14      -1.844738546129e-12       0.000000000000e+00       1.574493007643e-11       2.109996119745e-12      -8.222328498244e-15 
   85       3.185030258305e-10       7.518378354909e-14      -1.927765938258e-12       0.000000000000e+00       1.528073307256e-11       2.058192166118e-12      -8.174374000628e-15 
   86       3.224795622152e-10       7.730528068140e-14      -2.011863308961e-12       0.000000000000e+00       1.483385048920e-11       2.008198834081e-12      -8.136002362567e-15 
   87       3.264904115740e-10       7.943376235818e-14      -2.096974114115e-12       0.000000000000e+00       1.440405084618e-11       1.959990438053e-12      -8.105043433069e-15 
   88       3.305355602742e-10       8.156744862938e-14      -2.183039851101e-12       0.000000000000e+00       1.399089263022e-11       1.913517659172e-12      -8.079055690171e-15 
   89       3.346147289653e-10       8.370451300460e-14      -2.270000061803e-12       0.000000000000e+00       1.359371594097e-11       1.868706599537e-12      -8.055317677261e-15 
   90       3.387273602378e-10       8.584308246567e-14      -2.357792335610e-12       0.000000000000e+00       1.321163413710e-11       1.825457836440e-12      -8.030819439387e-15 
   91       3.428726062811e-10       8.798123747931e-14      -2.446352312417e-12       0.000000000000e+00       1.284352548232e-11       1.783645476595e-12      -8.002253959583e-15 
   92       3.470493165425e-10       9.011701200968e-14      -2.535613685625e-12       0.000000000000e+00       1.248802479148e-11       1.743116210383e-12      -7.966008595179e-15 
   93       3.512563837182e-10       9.224842647353e-14      -2.625509413694e-12       0.000000000000e+00       1.214384670762e-11       1.703727462461e-12      -7.919019102621e-15 
   94       3.554938680601e-10       9.437359224747e-14      -2.715975556714e-12       0.000000000000e+00       1.181082929600e-11       1.665470461413e-12      -7.861497241608e-15 
   95       3.597620201333e-10       9.649062297507e-14      -2.806948025088e-12       0.000000000000e+00       1.148903269139e-11       1.628364017288e-12      -7.794599478250e-15 
   96       3.640609302269e-10       9.859760348347e-14      -2.898361441723e-12       0.000000000000e+00       1.117841770147e-11       1.592416670850e-12      -7.719604182046e-15 
   97       3.683905209311e-10       1.006925902482e-13      -2.990149161623e-12       0.000000000000e+00       1.087884200513e-11       1.557626284480e-12      -7.637914902813e-15 
   98       3.727505397143e-10       1.027736118580e-13      -3.082243291477e-12       0.000000000000e+00       1.059005635073e-11       1.523979633084e-12      -7.551063647614e-15 
   99       3.771405515008e-10       1.048386694796e-13      -3.174574709253e-12       0.000000000000e+00       1.031170075445e-11       1.491451994993e-12      -7.460714157685e-15 
  100       3.815599312475e-10       1.068857373226e-13      -3.267073083788e-12       0.000000000000e+00       1.004330069856e-11       1.460006742869e-12      -7.368665185366e-15 
  101       3.860078565215e-10       1.089127631042e-13      -3.359666894375e-12       0.000000000000e+00       9.784263329730e-12       1.429594934610e-12      -7.276853771022e-15 
  102       3.904833000770e-10       1.109176685142e-13      -3.452283450360e-12       0.000000000000e+00       9.533873657344e-12       1.400154904253e-12      -7.187358519979e-15 
  103       3.949850224331e-10       1.128983496796e-13      -3.544848910730e-12       0.000000000000e+00       9.291290751785e-12       1.371611852874e-12      -7.102402879447e-15 
  104       3.995118286106e-10       1.148527287283e-13      -3.637288868468e-12       0.000000000000e+00       9.055738003191e-12       1.343894920996e-12      -7.023871504889e-15 
  105       4.040633938301e-10       1.167789154121e-13      -3.729530151343e-12       0.000000000000e+00       8.827111356560e-12       1.316991913432e-12      -6.951777895943e-15 
  106       4.086395360349e-10       1.186750682851e-13      -3.821499302037e-12       0.000000000000e+00       8.605446535383e-12       1.290901238710e-12      -6.885594905936e-15 
  107       4.132399572260e-10       1.205393465677e-13      -3.913122060587e-12       0.000000000000e+00       8.390730669272e-12       1.265614873345e-12      -6.824721118907e-15 
