# dimensionless total lensed [l(l+1)/2pi] C_l's
# for l=2 to 2500, i.e. number of multipoles equal to 2499
#
# -> if you prefer output in CAMB/HealPix/LensPix units/order, set 'format' to 'camb' in input file
# -> if you don't want to see such a header, set 'headers' to 'no' in input file
# -> for CMB lensing (phi), these are C_l^phi-phi for the lensing potential.
#    Remember the conversion factors:
#    C_l^dd (deflection) = l(l+1) C_l^phi-phi
#    C_l^gg (shear/convergence) = 1/4 (l(l+1))^2 C_l^phi-phi
#
# 1:l     2:TT                     3:EE                     4:TE                     5:BB                     6:phiphi                 7:TPhi                   8:Ephi               
    2       1.513638480316e-10       4.794149049888e-15       3.799557677109e-13       2.253188701840e-19       8.308908293319e-09       5.059098842634e-10      -2.012652277651e-12 
    3       1.417613104841e-10       6.054605746784e-15       4.281335439797e-13       4.507376596504e-19       5.129789637402e-09       3.573053574669e-10      -1.512213220999e-12 
    4       1.331024217920e-10       5.148957977669e-15       3.998155734661e-13       7.514493779041e-19       3.573402443034e-09       2.695790505251e-10      -9.767888562807e-13 
    5       1.266657670208e-10       3.373322684463e-15       3.391742588266e-13       1.127581475084e-18       2.668736365592e-09       2.123126760842e-10      -5.310266981048e-13 
    6       1.222159129301e-10       1.856555246754e-15       2.715862878361e-13       1.579288439025e-18       2.084681554710e-09       1.723345974153e-10      -2.072579095163e-13 
    7       1.192659835357e-10       9.991969680359e-16       2.117215141700e-13       2.106748801520e-18       1.680633966313e-09       1.430916927940e-10      -5.088511240878e-15 
    8       1.174571945009e-10       6.511184825535e-16       1.659060320004e-13       2.710161758104e-18       1.387198246444e-09       1.209770374726e-10       9.390934710748e-14 
    9       1.164909851050e-10       5.242231332072e-16       1.354167398592e-13       3.389743504220e-18       1.166707157936e-09       1.038399126763e-10       1.170785432536e-13 
   10       1.161199038402e-10       4.430151447515e-16       1.186521355629e-13       4.145723397708e-18       9.966335321327e-10       9.028023465416e-11       9.395866640936e-14 
   11       1.162476032514e-10       3.698569788557e-16       1.125804955157e-13       4.978340060672e-18       8.432448683473e-10       7.968576243569e-11       5.145221532169e-14 
   12       1.167282225283e-10       3.230798519018e-16       1.137758556738e-13       5.887837532989e-18       7.367162960008e-10       7.043619837632e-11       8.505984739259e-15 
   13       1.174920236087e-10       3.112408038076e-16       1.192644359796e-13       6.874461584885e-18       6.492660303050e-10       6.289364104809e-11      -2.257328004886e-14 
   14       1.184661027726e-10       3.231144150997e-16       1.268626486656e-13       7.938456287500e-18       5.765070442404e-10       5.630732392282e-11      -3.807911336133e-14 
   15       1.196480694462e-10       3.466837498315e-16       1.351520941776e-13       9.080060928472e-18       5.152632580293e-10       5.077077398790e-11      -3.911713227097e-14 
   16       1.209783297459e-10       3.813533584565e-16       1.435287796917e-13       1.029950734477e-17       4.631926260178e-10       4.602107149975e-11      -3.058991092656e-14 
   17       1.224465787994e-10       4.337523325534e-16       1.518943660764e-13       1.159701772790e-17       4.185258689014e-10       4.189308074330e-11      -1.835702861890e-14 
   18       1.240048027735e-10       5.088175102419e-16       1.604893734713e-13       1.297280272944e-17       3.797596663836e-10       3.827072974669e-11      -7.624506473746e-15 
   19       1.256645183416e-10       6.063025680502e-16       1.695545268587e-13       1.442706134237e-17       3.462756377330e-10       3.511433725950e-11      -8.584001081011e-16 
   20       1.274044970349e-10       7.236611808591e-16       1.792699267369e-13       1.595997795415e-17       3.167861619326e-10       3.233009250998e-11       6.145675252654e-16 
   21       1.292309825008e-10       8.602892646184e-16       1.895890893559e-13       1.757172541443e-17       2.908280461757e-10       2.986658356934e-11      -2.207631300680e-15 
   22       1.311255640674e-10       1.015838348292e-15       2.002902064071e-13       1.926246178522e-17       2.677794299473e-10       2.764727988240e-11      -7.115524778760e-15 
   23       1.330862597367e-10       1.190075505608e-15       2.109338465576e-13       2.103233493650e-17       2.473234576729e-10       2.564952353539e-11      -1.224084471094e-14 
   24       1.350959938280e-10       1.382723447466e-15       2.209769736203e-13       2.288147924281e-17       2.289876069792e-10       2.384566751265e-11      -1.575947276283e-14 
   25       1.371656382433e-10       1.594326897731e-15       2.301487323022e-13       2.481002195486e-17       2.125561545036e-10       2.222821183058e-11      -1.704043288924e-14 
   26       1.392957923235e-10       1.825895897225e-15       2.382735436459e-13       2.681807921437e-17       1.977315518655e-10       2.077750733647e-11      -1.603160468101e-14 
   27       1.414722745816e-10       2.079487531932e-15       2.452838598896e-13       2.890576209858e-17       1.843358484585e-10       1.946520856580e-11      -1.354540043466e-14 
   28       1.436682578782e-10       2.357473689528e-15       2.511742876115e-13       3.107317390791e-17       1.721380142277e-10       1.825331083445e-11      -1.073995748571e-14 
   29       1.458939101654e-10       2.661300360173e-15       2.560102772094e-13       3.332041964632e-17       1.610756862482e-10       1.714065006148e-11      -8.251052274111e-15 
   30       1.481602416249e-10       2.992110445037e-15       2.599150967910e-13       3.564759834471e-17       1.510300275910e-10       1.612902207287e-11      -6.645342234676e-15 
   31       1.504672468499e-10       3.350976617437e-15       2.630138310811e-13       3.805480302102e-17       1.417960766969e-10       1.521064933356e-11      -6.413588709043e-15 
   32       1.528173141156e-10       3.738817660873e-15       2.652508801287e-13       4.054213209563e-17       1.333260706899e-10       1.437511555577e-11      -7.275218752751e-15 
   33       1.552039921687e-10       4.156436268202e-15       2.665028830566e-13       4.310968224640e-17       1.255600315723e-10       1.360306305077e-11      -8.596689145335e-15 
   34       1.576140050511e-10       4.604588373257e-15       2.666286761942e-13       4.575754693757e-17       1.183891966890e-10       1.287150459326e-11      -9.698383907484e-15 
   35       1.600517968309e-10       5.084180663928e-15       2.654859776347e-13       4.848582128358e-17       1.117768038696e-10       1.218235052136e-11      -1.034717239249e-14 
   36       1.625218088801e-10       5.596134011614e-15       2.629178284574e-13       5.129459918928e-17       1.056697525078e-10       1.154303437197e-11      -1.042955612056e-14 
   37       1.650234910689e-10       6.141314565157e-15       2.587806365211e-13       5.418397115568e-17       9.998850500363e-11       1.095784013139e-11      -9.879803314139e-15 
   38       1.675593056650e-10       6.720487306114e-15       2.530605493900e-13       5.715402041888e-17       9.471833571883e-11       1.042488189797e-11      -8.879724665955e-15 
   39       1.701281379587e-10       7.334340202922e-15       2.457962240276e-13       6.020482578762e-17       8.984247952597e-11       9.937570167910e-12      -7.729743729521e-15 
   40       1.727223156213e-10       7.983490906852e-15       2.370494721323e-13       6.333646282432e-17       8.531437659700e-11       9.484968635620e-12      -6.801252010616e-15 
   41       1.753319410421e-10       8.668529659944e-15       2.268823015327e-13       6.654900008718e-17       8.107387978423e-11       9.055092916518e-12      -6.434233650543e-15 
   42       1.779611583437e-10       9.390175584463e-15       2.152756807139e-13       6.984248611211e-17       7.710846860912e-11       8.646946000910e-12      -6.579170202830e-15 
   43       1.806160798871e-10       1.014916373256e-14       2.021866896682e-13       7.321695838404e-17       7.340758895920e-11       8.261807155425e-12      -7.046186995611e-15 
   44       1.832999501313e-10       1.094620089209e-14       1.875703308378e-13       7.667244669281e-17       6.994428542170e-11       7.899818900456e-12      -7.599127364085e-15 
   45       1.860138449711e-10       1.178192744310e-14       1.713800578483e-13       8.020896859264e-17       6.668481937328e-11       7.560263777714e-12      -8.011581295107e-15 
   46       1.887597552001e-10       1.265679224280e-14       1.535702010169e-13       8.382651452852e-17       6.362402824607e-11       7.242732678151e-12      -8.261596211645e-15 
   47       1.915378935037e-10       1.357113823285e-14       1.340937971897e-13       8.752505799860e-17       6.075831681626e-11       6.946133019315e-12      -8.390376518447e-15 
   48       1.943455152446e-10       1.452523282424e-14       1.129016239295e-13       9.130455915554e-17       5.807499276724e-11       6.668263016011e-12      -8.449038911669e-15 
   49       1.971766643448e-10       1.551926453533e-14       8.994196969605e-14       9.516496439847e-17       5.555159042036e-11       6.405731896843e-12      -8.499179544232e-15 
   50       2.000249325238e-10       1.655337086730e-14       6.516675094684e-14       9.910620596490e-17       5.316262939676e-11       6.154945226673e-12      -8.599433727844e-15 
   51       2.028932095227e-10       1.762773865052e-14       3.855235409703e-14       1.031282015227e-16       5.090362231942e-11       5.915561274765e-12      -8.759538320052e-15 
   52       2.057861402096e-10       1.874252512462e-14       1.008405361577e-14       1.072308537621e-16       4.877241475767e-11       5.687834928118e-12      -8.974780471534e-15 
   53       2.087072328880e-10       1.989782723452e-14      -2.024977321704e-14       1.114140499872e-16       4.676200120647e-11       5.471605627088e-12      -9.238825441739e-15 
   54       2.116587469838e-10       2.109367973846e-14      -5.245757745229e-14       1.156776617082e-16       4.486019869632e-11       5.266267704564e-12      -9.543624589503e-15 
   55       2.146419973828e-10       2.233006785638e-14      -8.654517375311e-14       1.200215539302e-16       4.305335827631e-11       5.071030794891e-12      -9.878974177901e-15 
   56       2.176586132770e-10       2.360697322939e-14      -1.225176597059e-13       1.244456166560e-16       4.133932689751e-11       4.885844766167e-12      -1.023127422625e-14 
   57       2.207093953179e-10       2.492433606359e-14      -1.603778526964e-13       1.289497404948e-16       3.971713384177e-11       4.710652607731e-12      -1.058430016866e-14 
   58       2.237938323750e-10       2.628204029337e-14      -2.001256832095e-13       1.335338076206e-16       3.818306957565e-11       4.545102531938e-12      -1.091942171063e-14 
   59       2.269100054565e-10       2.767991225582e-14      -2.417581495093e-13       1.381976917426e-16       3.673051668010e-11       4.388529614757e-12      -1.121549721509e-14 
   60       2.300544916290e-10       2.911771936529e-14      -2.852692723176e-13       1.429412580746e-16       3.534978078001e-11       4.239937436372e-12      -1.144876808835e-14 
   61       2.332238217135e-10       3.059511813135e-14      -3.306509043664e-13       1.477643805669e-16       3.403077887589e-11       4.098270611450e-12      -1.159843815210e-14 
   62       2.364194530823e-10       3.211148757668e-14      -3.778954739213e-13       1.526669981906e-16       3.277219196195e-11       3.963345397676e-12      -1.166511413140e-14 
   63       2.396437476440e-10       3.366605590577e-14      -4.269937794514e-13       1.576490712907e-16       3.157407614255e-11       3.835096343842e-12      -1.165633575547e-14 
   64       2.428984707092e-10       3.525794498725e-14      -4.779341712623e-13       1.627105659457e-16       3.043510966045e-11       3.713294883735e-12      -1.158132930487e-14 
   65       2.461847442105e-10       3.688616742116e-14      -5.307025333000e-13       1.678514544855e-16       2.935251448966e-11       3.597540206446e-12      -1.145108237783e-14 
   66       2.495029999231e-10       3.854962360610e-14      -5.852822649545e-13       1.730717160082e-16       2.832197792821e-11       3.487250126675e-12      -1.127841865649e-14 
   67       2.528529326841e-10       4.024709880647e-14      -6.416542628638e-13       1.783713368979e-16       2.733757419105e-11       3.381651955049e-12      -1.107807267323e-14 
   68       2.562340429827e-10       4.197737187185e-14      -6.997968987940e-13       1.837503190441e-16       2.639334459986e-11       3.279985338762e-12      -1.086414479266e-14 
   69       2.596474969627e-10       4.373957353189e-14      -7.596859887466e-13       1.892087052781e-16       2.548858522519e-11       3.182178918297e-12      -1.064170020526e-14 
   70       2.630945609994e-10       4.553289576634e-14      -8.212947848742e-13       1.947465600440e-16       2.462349472857e-11       3.088295008166e-12      -1.041359416081e-14 
   71       2.665760145391e-10       4.735648650071e-14      -8.845939608828e-13       2.003639628538e-16       2.379757522117e-11       2.998326115890e-12      -1.018294876195e-14 
   72       2.700921183925e-10       4.920944952896e-14      -9.495515937347e-13       2.060610090025e-16       2.300959627605e-11       2.912191233550e-12      -9.953160728325e-15 
   73       2.736425830280e-10       5.109084443630e-14      -1.016133145353e-12       2.118378102818e-16       2.225755894027e-11       2.829732129328e-12      -9.727909160699e-15 
   74       2.772265368654e-10       5.299968652196e-14      -1.084301444322e-12       2.176944956949e-16       2.153865974713e-11       2.750709639054e-12      -9.511163305083e-15 
   75       2.808424945694e-10       5.493494672193e-14      -1.154016667598e-12       2.236312121709e-16       2.084925472835e-11       2.674799957750e-12      -9.307190316877e-15 
   76       2.844890125950e-10       5.689550611741e-14      -1.225237868615e-12       2.296481156447e-16       2.018576248733e-11       2.601678940214e-12      -9.119792249593e-15 
   77       2.881668639219e-10       5.888001005354e-14      -1.297927923792e-12       2.357453408400e-16       1.954764309192e-11       2.531300947880e-12      -8.949839224275e-15 
   78       2.918772041314e-10       6.088698715460e-14      -1.372049459000e-12       2.419230272487e-16       1.893489953828e-11       2.463664349758e-12      -8.797298437533e-15 
   79       2.956209020075e-10       6.291489138619e-14      -1.447563396366e-12       2.481813287843e-16       1.834717041970e-11       2.398726151463e-12      -8.661957118846e-15 
   80       2.993985219227e-10       6.496210104673e-14      -1.524428967687e-12       2.545204142995e-16       1.778371319491e-11       2.336400091452e-12      -8.543414489316e-15 
   81       3.032103062240e-10       6.702691775900e-14      -1.602603727847e-12       2.609404681026e-16       1.724338745651e-11       2.276554737268e-12      -8.441073720428e-15 
   82       3.070561576196e-10       6.910756546158e-14      -1.682043568229e-12       2.674416904744e-16       1.672463819939e-11       2.219011581783e-12      -8.354133892806e-15 
   83       3.109356215644e-10       7.120218940043e-14      -1.762702730127e-12       2.740242981852e-16       1.622547908906e-11       2.163543139438e-12      -8.281581954969e-15 
   84       3.148481821062e-10       7.330891611139e-14      -1.844533209198e-12       2.806885219011e-16       1.574397424252e-11       2.109927906262e-12      -8.222153200848e-15 
   85       3.187942443556e-10       7.542604700218e-14      -1.927482825981e-12       2.874345967789e-16       1.527981198862e-11       2.058129878631e-12      -8.174222788383e-15 
   86       3.227742833517e-10       7.755189516241e-14      -2.011496858618e-12       2.942627712524e-16       1.483296254025e-11       2.008145442841e-12      -8.135881410170e-15 
   87       3.267885329206e-10       7.968472724216e-14      -2.096518626508e-12       3.011733104617e-16       1.440319444850e-11       1.959948223284e-12      -8.104956731711e-15 
   88       3.308369733293e-10       8.182276346855e-14      -2.182489493492e-12       3.081664967181e-16       1.399006624937e-11       1.913488134378e-12      -8.079004821079e-15 
   89       3.349193189403e-10       8.396417766233e-14      -2.269348871026e-12       3.152426299682e-16       1.359291811054e-11       1.868690432509e-12      -8.055301578573e-15 
   90       3.390350058660e-10       8.610709725442e-14      -2.357034221365e-12       3.224020282590e-16       1.321086347815e-11       1.825454767960e-12      -8.030834166381e-15 
   91       3.431831796230e-10       8.824960330248e-14      -2.445481060741e-12       3.296450282018e-16       1.284278072349e-11       1.783654236852e-12      -8.002292438242e-15 
   92       3.473626827866e-10       9.038973050749e-14      -2.534622962540e-12       3.369719854377e-16       1.248730478982e-11       1.743134433077e-12      -7.966060369103e-15 
   93       3.515724017143e-10       9.252550044028e-14      -2.624392772987e-12       3.443832854963e-16       1.214315044208e-11       1.703751852029e-12      -7.919070919167e-15 
   94       3.558123931841e-10       9.465502690155e-14      -2.714726460427e-12       3.518793772348e-16       1.181015577257e-11       1.665497768125e-12      -7.861536314560e-15 
   95       3.600829051656e-10       9.677642651236e-14      -2.805559853548e-12       3.594607453107e-16       1.148838092459e-11       1.628391322291e-12      -7.794614466073e-15 
   96       3.643840255309e-10       9.888778738219e-14      -2.896827500020e-12       3.671279008344e-16       1.117778672290e-11       1.592441427814e-12      -7.719585361015e-15 
   97       3.687156746381e-10       1.009871695814e-13      -2.988462686316e-12       3.748813819758e-16       1.087823087238e-11       1.557646362456e-12      -7.637854345093e-15 
   98       3.730775979145e-10       1.030726056136e-13      -3.080397457536e-12       3.827217545721e-16       1.058946415662e-11       1.523993360564e-12      -7.550955404298e-15 
   99       3.774693584398e-10       1.051421008881e-13      -3.172562637231e-12       3.906496127348e-16       1.031112663655e-11       1.491458205181e-12      -7.460554446783e-15 
  100       3.818903295295e-10       1.071936341924e-13      -3.264887847226e-12       3.986655794570e-16       1.004274384905e-11       1.460004820159e-12      -7.368452584751e-15 
  101       3.863396873180e-10       1.092251581647e-13      -3.357301527442e-12       4.067703072209e-16       9.783723005531e-12       1.429584862268e-12      -7.276589416333e-15 
  102       3.908164033421e-10       1.112345997660e-13      -3.449730955720e-12       4.149644786046e-16       9.533349190615e-12       1.400137313309e-12      -7.187046307474e-15 
  103       3.953192371239e-10       1.132198607530e-13      -3.542102267643e-12       4.232488068901e-16       9.290781560688e-12       1.371588072221e-12      -7.102049673815e-15 
  104       3.998469916493e-10       1.151788692467e-13      -3.634341028522e-12       4.316240132812e-16       9.055243585138e-12       1.343866871993e-12      -7.023486670723e-15 
  105       4.043993350811e-10       1.171097413565e-13      -3.726373994656e-12       4.400907537480e-16       8.826631225455e-12       1.316961511504e-12      -6.951370685496e-15 
  106       4.089760767371e-10       1.190106423715e-13      -3.818127628052e-12       4.486496833867e-16       8.604980207846e-12       1.290870223295e-12      -6.885173708897e-15 
  107       4.135769096344e-10       1.208797386353e-13      -3.909527591096e-12       4.573014792715e-16       8.390277668152e-12       1.265584788086e-12      -6.824293365111e-15 
