# dimensionless total lensed [l(l+1)/2pi] C_l's
# for l=2 to 2500, i.e. number of multipoles equal to 2499
#
# -> if you prefer output in CAMB/HealPix/LensPix units/order, set 'format' to 'camb' in input file
# -> if you don't want to see such a header, set 'headers' to 'no' in input file
# -> for CMB lensing (phi), these are C_l^phi-phi for the lensing potential.
#    Remember the conversion factors:
#    C_l^dd (deflection) = l(l+1) C_l^phi-phi
#    C_l^gg (shear/convergence) = 1/4 (l(l+1))^2 C_l^phi-phi
#
# 1:l     2:TT                     3:EE                     4:TE                     5:BB                     6:phiphi                 7:TPhi                   8:Ephi               
    2       1.513652710486e-10       4.794157304600e-15       3.799553725435e-13       2.253206401421e-19       8.309166143176e-09       5.059233338849e-10      -2.012668136007e-12 
    3       1.417617857073e-10       6.054623809736e-15       4.281301298647e-13       4.507412171665e-19       5.129970542152e-09       3.573158757238e-10      -1.512228370805e-12 
    4       1.331029232723e-10       5.148994242034e-15       3.998148792560e-13       7.514553454397e-19       3.573539435294e-09       2.695873350098e-10      -9.768003992571e-13 
    5       1.266666538300e-10       3.373357003144e-15       3.391766132140e-13       1.127590496461e-18       2.668845074835e-09       2.123194592164e-10      -5.310328687264e-13 
    6       1.222171215263e-10       1.856580067290e-15       2.715895886007e-13       1.579301183033e-18       2.084770885826e-09       1.723404041819e-10      -2.072595823960e-13 
    7       1.192671945386e-10       9.992161431082e-16       2.117250142445e-13       2.106765964483e-18       1.680708924633e-09       1.430968094654e-10      -5.087564660566e-15 
    8       1.174583910145e-10       6.511352349380e-16       1.659095444235e-13       2.710184065304e-18       1.387262325368e-09       1.209816045956e-10       9.391121102224e-14 
    9       1.164922146411e-10       5.242384714216e-16       1.354201270030e-13       3.389771710143e-18       1.166763184768e-09       1.038440638596e-10       1.170802059989e-13 
   10       1.161210644133e-10       4.430294066254e-16       1.186557262805e-13       4.145758285085e-18       9.966832241664e-10       9.028409536812e-11       9.395960269053e-14 
   11       1.162487561563e-10       3.698708117539e-16       1.125844730119e-13       4.978382438410e-18       8.432895516779e-10       7.968941224816e-11       5.145237054851e-14 
   12       1.167293814013e-10       3.230946193770e-16       1.137803224067e-13       5.887888233076e-18       7.367564854643e-10       7.043950089931e-11       8.505530850710e-15 
   13       1.174931872056e-10       3.112579986693e-16       1.192694776365e-13       6.874521458424e-18       6.493025050411e-10       6.289660513252e-11      -2.257403870796e-14 
   14       1.184673507484e-10       3.231353579100e-16       1.268683335582e-13       7.938526200075e-18       5.765401900929e-10       5.631011348146e-11      -3.807993927280e-14 
   15       1.196494215686e-10       3.467093220854e-16       1.351584840042e-13       9.080141755063e-18       5.152935687560e-10       5.077340838462e-11      -3.911785170609e-14 
   16       1.209797173152e-10       3.813845318551e-16       1.435357309621e-13       1.029959996446e-17       4.632204829778e-10       4.602344233822e-11      -3.059048123662e-14 
   17       1.224480476884e-10       4.337908634536e-16       1.519018990996e-13       1.159712301862e-17       4.185515159264e-10       4.189518235531e-11      -1.835747840236e-14 
   18       1.240063059529e-10       5.088645381401e-16       1.604974093232e-13       1.297292156288e-17       3.797833353341e-10       3.827270570057e-11      -7.624935976012e-15 
   19       1.256660382299e-10       6.063596071485e-16       1.695630413941e-13       1.442719458010e-17       3.462975557981e-10       3.511623618022e-11      -8.588732527456e-16 
   20       1.274061039454e-10       7.237305212263e-16       1.792790271856e-13       1.596012644306e-17       3.168065013439e-10       3.233179789970e-11       6.140654035335e-16 
   21       1.292326997507e-10       8.603729164973e-16       1.895988008447e-13       1.757188998490e-17       2.908469559248e-10       2.986806836122e-11      -2.208148662885e-15 
   22       1.311273290088e-10       1.015937689504e-15       2.003004012388e-13       1.926264324854e-17       2.677970261137e-10       2.764867399164e-11      -7.116068715342e-15 
   23       1.330880334534e-10       1.190191968502e-15       2.109443788311e-13       2.103253408531e-17       2.473398528340e-10       2.565089026104e-11      -1.224141868522e-14 
   24       1.350977961575e-10       1.382858799416e-15       2.209877336695e-13       2.288169685065e-17       2.290029063764e-10       2.384694025785e-11      -1.576005761638e-14 
   25       1.371674974829e-10       1.594483351943e-15       2.301596639078e-13       2.481025877904e-17       2.125704578129e-10       2.222935341792e-11      -1.704098186802e-14 
   26       1.392977268641e-10       1.826076062562e-15       2.382846391802e-13       2.681833599785e-17       1.977449446015e-10       2.077855312607e-11      -1.603205260742e-14 
   27       1.414742886942e-10       2.079693762335e-15       2.452950648003e-13       2.890603957447e-17       1.843484077948e-10       1.946617886206e-11      -1.354572984096e-14 
   28       1.436703416467e-10       2.357707933585e-15       2.511854826014e-13       3.107347280331e-17       1.721498056919e-10       1.825418895701e-11      -1.074021726415e-14 
   29       1.458960567507e-10       2.661564770410e-15       2.560213793883e-13       3.332074068835e-17       1.610867738951e-10       1.714143526608e-11      -8.251303623850e-15 
   30       1.481624542687e-10       2.992407626988e-15       2.599261049325e-13       3.564794226560e-17       1.510404709342e-10       1.612975156092e-11      -6.645639709188e-15 
   31       1.504695392561e-10       3.351309560906e-15       2.630248144956e-13       3.805517056293e-17       1.418059253045e-10       1.521139131861e-11      -6.413972744491e-15 
   32       1.528197022857e-10       3.739189070737e-15       2.652618489660e-13       4.054252401514e-17       1.333353710061e-10       1.437590491593e-11      -7.275697780654e-15 
   33       1.552064915692e-10       4.156848257681e-15       2.665137304145e-13       4.311009932004e-17       1.255688249869e-10       1.360387151964e-11      -8.597227034065e-15 
   34       1.576166289502e-10       4.605042504628e-15       2.666391863586e-13       4.575798996657e-17       1.183975165176e-10       1.287224601484e-11      -9.698905440829e-15 
   35       1.600545512630e-10       5.084678698102e-15       2.654959652326e-13       4.848629109387e-17       1.117846814959e-10       1.218296052951e-11      -1.034762469939e-14 
   36       1.625246895696e-10       5.596678202598e-15       2.629271935327e-13       5.129509663524e-17       1.056772169515e-10       1.154350235467e-11      -1.042993445906e-14 
   37       1.650264842143e-10       6.141907675243e-15       2.587893578726e-13       5.418449712223e-17       9.999558132175e-11       1.095820863039e-11      -9.880150315299e-15 
   38       1.675623994761e-10       6.721132274323e-15       2.530685790462e-13       5.715457581218e-17       9.472504870128e-11       1.042519833524e-11      -8.880086218856e-15 
   39       1.701313270159e-10       7.335040050408e-15       2.458034478275e-13       6.020541153365e-17       8.984885349022e-11       9.937870755624e-12      -7.730154114211e-15 
   40       1.727256024902e-10       7.984248734919e-15       2.370556956171e-13       6.333707987068e-17       8.532043355576e-11       9.485274722162e-12      -6.801730324188e-15 
   41       1.753353353174e-10       8.669348456837e-15       2.268872633211e-13       6.654964940046e-17       8.107963855946e-11       9.055410348694e-12      -6.434783003628e-15 
   42       1.779646667216e-10       9.391057384283e-15       2.152791612398e-13       6.984316866034e-17       7.711394754977e-11       8.647275330751e-12      -6.579786904031e-15 
   43       1.806197024644e-10       1.015010921069e-14       2.021885540947e-13       7.321767512930e-17       7.341280595251e-11       8.262146102106e-12      -7.046862584869e-15 
   44       1.833036790505e-10       1.094720912019e-14       1.875705473093e-13       7.667319858771e-17       6.994925680957e-11       7.900161814559e-12      -7.599847871794e-15 
   45       1.860176654121e-10       1.178299597432e-14       1.713786915713e-13       8.020975657408e-17       6.668955946231e-11       7.560602147847e-12      -8.012328187800e-15 
   46       1.887636544385e-10       1.265791833675e-14       1.535673247243e-13       8.382733950308e-17       6.362855101661e-11       7.243059207445e-12      -8.262353088321e-15 
   47       1.915418641793e-10       1.357231925880e-14       1.340894620171e-13       8.752592083341e-17       6.076263594096e-11       6.946443147894e-12      -8.391131710755e-15 
   48       1.943495564724e-10       1.452646635669e-14       1.128958529608e-13       9.130546067101e-17       5.807912095824e-11       6.668555494263e-12      -8.449786568390e-15 
   49       1.971807828862e-10       1.552054845597e-14       8.993475110977e-14       9.516590536064e-17       5.555553872822e-11       6.406009390251e-12      -8.499920777050e-15 
   50       2.000291419143e-10       1.655470344963e-14       6.515803730374e-14       9.910718707996e-17       5.316640700514e-11       6.155213760280e-12      -8.600175881495e-15 
   51       2.028975222747e-10       1.762911857188e-14       3.854208293650e-14       1.031292234396e-16       5.090723809801e-11       5.915825752054e-12      -8.760287873293e-15 
   52       2.057905651651e-10       1.874395154224e-14       1.007215183920e-14       1.072319170686e-16       4.877587745053e-11       5.688097564460e-12      -8.975540684369e-15 
   53       2.087117744735e-10       1.989929988882e-14      -2.026339108411e-14       1.114151552034e-16       4.676531909583e-11       5.471865458007e-12      -9.239595759253e-15 
   54       2.116634044273e-10       2.109519906163e-14      -5.247301108836e-14       1.156788092798e-16       4.486337924359e-11       5.266520069475e-12      -9.544400015824e-15 
   55       2.146467649643e-10       2.233163490260e-14      -8.656253332969e-14       1.200227442299e-16       4.305640800196e-11       5.071267845912e-12      -9.879745617771e-15 
   56       2.176634840690e-10       2.360858900543e-14      -1.225370437404e-13       1.244468500138e-16       4.134225209891e-11       4.886059406652e-12      -1.023203207935e-14 
   57       2.207143622355e-10       2.492600131939e-14      -1.603993399194e-13       1.289510172061e-16       3.971994064137e-11       4.710839810118e-12      -1.058503542690e-14 
   58       2.237988882335e-10       2.628375548146e-14      -2.001493295347e-13       1.335351279466e-16       3.818576371368e-11       4.545259696613e-12      -1.092012613756e-14 
   59       2.269151430318e-10       2.768167748897e-14      -2.417839848735e-13       1.381990559106e-16       3.673310329460e-11       4.388656945281e-12      -1.121616353427e-14 
   60       2.300597037217e-10       2.911953437229e-14      -2.852972973933e-13       1.429426662783e-16       3.535226417442e-11       4.240038331055e-12      -1.144939018075e-14 
   61       2.332291015850e-10       3.059698230062e-14      -3.306810939203e-13       1.477658329749e-16       3.403316252353e-11       4.098351294087e-12      -1.159901120777e-14 
   62       2.364247960964e-10       3.211340029088e-14      -3.779278021514e-13       1.526684949804e-16       3.277447931188e-11       3.963412029191e-12      -1.166563463188e-14 
   63       2.396491519804e-10       3.366801664777e-14      -4.270282280731e-13       1.576506126630e-16       3.157627078248e-11       3.835154114035e-12      -1.165680160321e-14 
   64       2.429039377475e-10       3.525995336312e-14      -4.779707313376e-13       1.627121521318e-16       3.043721524155e-11       3.713347822192e-12      -1.158174001117e-14 
   65       2.461902789295e-10       3.688822318414e-14      -5.307412071524e-13       1.678530857547e-16       2.935453464668e-11       3.597590985142e-12      -1.145143925794e-14 
   66       2.495086113141e-10       3.855172668162e-14      -5.853230681709e-13       1.730733926759e-16       2.832391619507e-11       3.487299854278e-12      -1.127872503204e-14 
   67       2.528586341807e-10       4.024924931811e-14      -6.416972263819e-13       1.783730593338e-16       2.733943391168e-11       3.381699962911e-12      -1.107833408183e-14 
   68       2.562398516695e-10       4.197957011115e-14      -6.998420666162e-13       1.837520876738e-16       2.639512890947e-11       3.280029400998e-12      -1.086436872150e-14 
   69       2.596534288043e-10       4.374181974388e-14      -7.597334013146e-13       1.892105205601e-16       2.549029726930e-11       3.182216894794e-12      -1.064189426829e-14 
   70       2.631006292668e-10       4.553519008370e-14      -8.213444740187e-13       1.947484224668e-16       2.462513768430e-11       3.088325339386e-12      -1.041376552854e-14 
   71       2.665822293826e-10       4.735882893125e-14      -8.846459489478e-13       2.003658729401e-16       2.379915224526e-11       2.998347903761e-12      -1.018310404163e-14 
   72       2.700984863987e-10       4.921183994273e-14      -9.496058926745e-13       2.060629673134e-16       2.301111045012e-11       2.912204325362e-12      -9.953305839021e-15 
   73       2.736491067602e-10       5.109328255225e-14      -1.016189755800e-12       2.118398174212e-16       2.225901321338e-11       2.829737204639e-12      -9.728049203269e-15 
   74       2.772332143876e-10       5.300217189406e-14      -1.084360354629e-12       2.176965523141e-16       2.154005687567e-11       2.750708299608e-12      -9.511302427049e-15 
   75       2.808493189531e-10       5.493747872490e-14      -1.154077852846e-12       2.236333189734e-16       2.085059721314e-11       2.674794820403e-12      -9.307331572182e-15 
   76       2.844959724331e-10       5.689808397631e-14      -1.225301294137e-12       2.296502733766e-16       2.018705257675e-11       2.601673447829e-12      -9.119937578578e-15 
   77       2.881739471092e-10       5.888263301527e-14      -1.297993563206e-12       2.357475502350e-16       1.954888300260e-11       2.531298268110e-12      -8.949989830918e-15 
   78       2.918843989468e-10       6.088965454266e-14      -1.372117300338e-12       2.419252890106e-16       1.893609149317e-11       2.463667024311e-12      -8.797454832925e-15 
   79       2.956281972303e-10       6.291760261381e-14      -1.447633443964e-12       2.481836435831e-16       1.834831661967e-11       2.398736012855e-12      -8.662119043272e-15 
   80       2.994059069536e-10       6.496485563048e-14      -1.524501244147e-12       2.545227827668e-16       1.778481578909e-11       2.336418176933e-12      -8.543580831798e-15 
   81       3.032177712107e-10       6.702971533276e-14      -1.602678276057e-12       2.609428908272e-16       1.724444851135e-11       2.276581199906e-12      -8.441242435727e-15 
   82       3.070636935864e-10       6.911040579111e-14      -1.682120453452e-12       2.674441679978e-16       1.672565966635e-11       2.219045598714e-12      -8.354301915889e-15 
   83       3.109432205469e-10       7.120507239824e-14      -1.762782042155e-12       2.740268309969e-16       1.622646277107e-11       2.163582817281e-12      -8.281745112939e-15 
   84       3.148558375066e-10       7.331184181231e-14      -1.844615058192e-12       2.806911104424e-16       1.574492179518e-11       2.109970433991e-12      -8.222306515153e-15 
   85       3.188019519966e-10       7.542901541236e-14      -1.927567318040e-12       2.874372414733e-16       1.528072503528e-11       2.058172476172e-12      -8.174362027776e-15 
   86       3.227820419568e-10       7.755490621456e-14      -2.011584088360e-12       2.942654725140e-16       1.483384268985e-11       2.008185641268e-12      -8.136003596578e-15 
   87       3.267963443950e-10       7.968778078863e-14      -2.096608675693e-12       3.011760686948e-16       1.440404327822e-11       1.959983907808e-12      -8.105060275726e-15 
   88       3.308448430496e-10       8.182585927411e-14      -2.182582429598e-12       3.081693123167e-16       1.399088528667e-11       1.913517588706e-12      -8.079089661507e-15 
   89       3.349272560521e-10       8.396731539678e-14      -2.269444745784e-12       3.152455033163e-16       1.359370881445e-11       1.868712384572e-12      -8.055369326056e-15 
   90       3.390430235893e-10       8.611027648492e-14      -2.357133069252e-12       3.224049597297e-16       1.321162721986e-11       1.825468437020e-12      -8.030888251076e-15 
   91       3.431912955661e-10       8.825282348574e-14      -2.445582897432e-12       3.296480181578e-16       1.284351876632e-11       1.783659381967e-12      -8.002338261568e-15 
   92       3.473709192677e-10       9.039299098164e-14      -2.534727783314e-12       3.369750342303e-16       1.248801826841e-11       1.743131402948e-12      -7.966105459552e-15 
   93       3.515807845913e-10       9.252880041417e-14      -2.624500551978e-12       3.443863934816e-16       1.214384036902e-11       1.703741527812e-12      -7.919124534756e-15 
   94       3.558209459319e-10       9.465836543612e-14      -2.714837152623e-12       3.518825448396e-16       1.181082313350e-11       1.665481163763e-12      -7.861607281183e-15 
   95       3.600916470027e-10       9.677980250831e-14      -2.805673394381e-12       3.594639730558e-16       1.148902669688e-11       1.628369478106e-12      -7.794710520913e-15 
   96       3.643929709702e-10       9.889119956971e-14      -2.896943804072e-12       3.671311893425e-16       1.117841186716e-11       1.592415407807e-12      -7.719713026198e-15 
   97       3.687248330255e-10       1.009906165096e-13      -2.988581646005e-12       3.748847319806e-16       1.087883632364e-11       1.557617251485e-12      -7.638018797754e-15 
   98       3.730869729546e-10       1.030760856399e-13      -3.080518941767e-12       3.827251669264e-16       1.059005081519e-11       1.523962261407e-12      -7.551160343058e-15 
   99       3.774789477096e-10       1.051456121671e-13      -3.172686490017e-12       3.906530884196e-16       1.031169535859e-11       1.491426235480e-12      -7.460801954643e-15 
  100       3.819001239789e-10       1.071971746645e-13      -3.265013886280e-12       3.986691195909e-16       1.004329543681e-11       1.459973109248e-12      -7.368742988392e-15 
  101       3.863496707588e-10       1.092287255447e-13      -3.357429542735e-12       4.067739130688e-16       9.784258197316e-12       1.429554547887e-12      -7.276921141838e-15 
  102       3.908265519232e-10       1.112381915312e-13      -3.449860708016e-12       4.149681515879e-16       9.533868650390e-12       1.400109538195e-12      -7.187415732450e-15 
  103       3.953295187954e-10       1.132234741313e-13      -3.542233487000e-12       4.232525485957e-16       9.291285867423e-12       1.371563980591e-12      -7.102450975940e-15 
  104       3.998573677919e-10       1.151825012723e-13      -3.634473423214e-12       4.316278254468e-16       9.055733239444e-12       1.343847579289e-12      -7.023912178740e-15 
  105       4.044097689953e-10       1.171133891410e-13      -3.726507293042e-12       4.400946381666e-16       8.827106711503e-12       1.316947990100e-12      -6.951812822606e-15 
  106       4.089865361810e-10       1.190143031881e-13      -3.818261591916e-12       4.486536418806e-16       8.605442006936e-12       1.290863260621e-12      -6.885625553175e-15 
  107       4.135873672757e-10       1.208834099387e-13      -3.909662019011e-12       4.573055136910e-16       8.390726255208e-12       1.265584969949e-12      -6.824748725043e-15 
