# dimensionless total lensed [l(l+1)/2pi] C_l's
# for l=2 to 2500, i.e. number of multipoles equal to 2499
#
# -> if you prefer output in CAMB/HealPix/LensPix units/order, set 'format' to 'camb' in input file
# -> if you don't want to see such a header, set 'headers' to 'no' in input file
# -> for CMB lensing (phi), these are C_l^phi-phi for the lensing potential.
#    Remember the conversion factors:
#    C_l^dd (deflection) = l(l+1) C_l^phi-phi
#    C_l^gg (shear/convergence) = 1/4 (l(l+1))^2 C_l^phi-phi
#
# 1:l     2:TT                     3:EE                     4:TE                     5:BB                     6:phiphi                 7:TPhi                   8:Ephi               
    2       1.513662591215e-10       4.794188595087e-15       3.799578523581e-13       2.253233246942e-19       8.309220285063e-09       5.059266399310e-10      -2.012681271517e-12 
    3       1.417627111207e-10       6.054663327912e-15       4.281329240359e-13       4.507465869003e-19       5.130003922058e-09       3.573182107612e-10      -1.512238240711e-12 
    4       1.331037915892e-10       5.149027851205e-15       3.998174886700e-13       7.514642964114e-19       3.573562730829e-09       2.695890986127e-10      -9.768067743669e-13 
    5       1.266674806372e-10       3.373379025603e-15       3.391788268970e-13       1.127603925611e-18       2.668862528264e-09       2.123208494105e-10      -5.310363338640e-13 
    6       1.222179187225e-10       1.856592192898e-15       2.715913613175e-13       1.579319988440e-18       2.084784612052e-09       1.723415313656e-10      -2.072609340405e-13 
    7       1.192679734187e-10       9.992226759080e-16       2.117263962642e-13       2.106791045640e-18       1.680720045268e-09       1.430977459473e-10      -5.087596988950e-15 
    8       1.174591559186e-10       6.511394991586e-16       1.659106273670e-13       2.710216323411e-18       1.387271547797e-09       1.209824019183e-10       9.391182393889e-14 
    9       1.164929748405e-10       5.242419108722e-16       1.354210109840e-13       3.389812048411e-18       1.166770964298e-09       1.038447462453e-10       1.170809687313e-13 
   10       1.161218186404e-10       4.430323196769e-16       1.186565009380e-13       4.145807609063e-18       9.966898560347e-10       9.028467985808e-11       9.396021357409e-14 
   11       1.162495160481e-10       3.698732519514e-16       1.125852074036e-13       4.978441656305e-18       8.432951093773e-10       7.968993252797e-11       5.145270460602e-14 
   12       1.167301388824e-10       3.230967594743e-16       1.137810654576e-13       5.887958256075e-18       7.367613435013e-10       7.043997101140e-11       8.505586649746e-15 
   13       1.174939548102e-10       3.112600657568e-16       1.192702565582e-13       6.874603201008e-18       6.493067877829e-10       6.289702237063e-11      -2.257418366429e-14 
   14       1.184681156739e-10       3.231375082043e-16       1.268691613656e-13       7.938620580306e-18       5.765439942014e-10       5.631047399970e-11      -3.808018468663e-14 
   15       1.196502043751e-10       3.467116355891e-16       1.351593650452e-13       9.080249694842e-18       5.152969697717e-10       5.077373469619e-11      -3.911810453554e-14 
   16       1.209804983748e-10       3.813870789337e-16       1.435366683731e-13       1.029972238974e-17       4.632235419230e-10       4.602375390154e-11      -3.059067945997e-14 
   17       1.224488486500e-10       4.337937572006e-16       1.519028910661e-13       1.159726085956e-17       4.185542816649e-10       4.189546786687e-11      -1.835759776777e-14 
   18       1.240071218453e-10       5.088679300073e-16       1.604984571867e-13       1.297307575397e-17       3.797858463105e-10       3.827295508879e-11      -7.624986765018e-15 
   19       1.256668599637e-10       6.063636458020e-16       1.695641489114e-13       1.442736606014e-17       3.462998463658e-10       3.511645671101e-11      -8.588809491566e-16 
   20       1.274069351264e-10       7.237353346856e-16       1.792801990680e-13       1.596031615515e-17       3.168085974263e-10       3.233201230103e-11       6.140679680503e-16 
   21       1.292335433963e-10       8.603786291078e-16       1.896000412740e-13       1.757209887632e-17       2.908488807703e-10       2.986827879881e-11      -2.208162940222e-15 
   22       1.311281834003e-10       1.015944425135e-15       2.003017126189e-13       1.926287227052e-17       2.677987992782e-10       2.764885506049e-11      -7.116114046549e-15 
   23       1.330888988386e-10       1.190199850142e-15       2.109457601300e-13       2.103278419273e-17       2.473414913910e-10       2.565104175170e-11      -1.224149743308e-14 
   24       1.350986761273e-10       1.382867948319e-15       2.209891799053e-13       2.288196900177e-17       2.290044237350e-10       2.384709726599e-11      -1.576016004704e-14 
   25       1.371683930264e-10       1.594493891930e-15       2.301611694535e-13       2.481055393499e-17       2.125718663959e-10       2.222952208392e-11      -1.704109334216e-14 
   26       1.392986346203e-10       1.826088123141e-15       2.382861985780e-13       2.681865512221e-17       1.977462555305e-10       2.077869681181e-11      -1.603215728719e-14 
   27       1.414752052939e-10       2.079707488398e-15       2.452966709860e-13       2.890638363276e-17       1.843496307492e-10       1.946628332285e-11      -1.354581758628e-14 
   28       1.436712653491e-10       2.357723487961e-15       2.511871267941e-13       3.107384276244e-17       1.721509483037e-10       1.825427968838e-11      -1.074028627995e-14 
   29       1.458969880779e-10       2.661582324267e-15       2.560230539664e-13       3.332113751616e-17       1.610878433895e-10       1.714153658938e-11      -8.251356518746e-15 
   30       1.481633965995e-10       2.992427356278e-15       2.599278048573e-13       3.564836693026e-17       1.510414739548e-10       1.612987086093e-11      -6.645682890309e-15 
   31       1.504704984284e-10       3.351331646087e-15       2.630265370866e-13       3.805562403240e-17       1.418068673418e-10       1.521151823936e-11      -6.414015808934e-15 
   32       1.528206827281e-10       3.739213699284e-15       2.652635899292e-13       4.054300725692e-17       1.333362571973e-10       1.437602692329e-11      -7.275747959912e-15 
   33       1.552074945133e-10       4.156875624803e-15       2.665154821571e-13       4.311061330066e-17       1.255696599427e-10       1.360397919618e-11      -8.597286605331e-15 
   34       1.576176523556e-10       4.605072812669e-15       2.666409382128e-13       4.575853565115e-17       1.183983040084e-10       1.287233394172e-11      -9.698971486185e-15 
   35       1.600555928439e-10       5.084712153904e-15       2.654977071518e-13       4.848686944617e-17       1.117854250839e-10       1.218302719482e-11      -1.034769295953e-14 
   36       1.625257477878e-10       5.596715016099e-15       2.629289175562e-13       5.129570861735e-17       1.056779199441e-10       1.154355081808e-11      -1.043000049018e-14 
   37       1.650275582323e-10       6.141948059371e-15       2.587910579626e-13       5.418514369433e-17       9.999624659713e-11       1.095824622938e-11      -9.880209870644e-15 
   38       1.675634883024e-10       6.721176447733e-15       2.530702483420e-13       5.715525793321e-17       9.472567905560e-11       1.042523199808e-11      -8.880136639688e-15 
   39       1.701324291896e-10       7.335088238278e-15       2.458050776263e-13       6.020613016138e-17       8.984945159812e-11       9.937905246539e-12      -7.730195087332e-15 
   40       1.727267159724e-10       7.984301168989e-15       2.370572750161e-13       6.333783596153e-17       8.532100176870e-11       9.485312007142e-12      -6.801764412315e-15 
   41       1.753364577475e-10       8.669405375013e-15       2.268887794718e-13       6.655044390959e-17       8.108017881376e-11       9.055449596865e-12      -6.434815310675e-15 
   42       1.779657969305e-10       9.391119028741e-15       2.152806017356e-13       6.984400254273e-17       7.711446168849e-11       8.647315175187e-12      -6.579821726299e-15 
   43       1.806208411273e-10       1.015017582699e-14       2.021899078798e-13       7.321854934022e-17       7.341329573869e-11       8.262185303909e-12      -7.046902151252e-15 
   44       1.833048290199e-10       1.094728095678e-14       1.875718050312e-13       7.667411408286e-17       6.994972381535e-11       7.900199314959e-12      -7.599891869815e-15 
   45       1.860188314515e-10       1.178307328203e-14       1.713798453986e-13       8.021071430991e-17       6.669000502410e-11       7.560637114593e-12      -8.012373946111e-15 
   46       1.887648409024e-10       1.265800136838e-14       1.535683663212e-13       8.382834043743e-17       6.362897643290e-11       7.243091053807e-12      -8.262398029538e-15 
   47       1.915430741638e-10       1.357240826860e-14       1.340903818444e-13       8.752696592596e-17       6.076304248508e-11       6.946471576806e-12      -8.391174164405e-15 
   48       1.943507915116e-10       1.452656159980e-14       1.128966400718e-13       9.130655088368e-17       5.807950981823e-11       6.668580553848e-12      -8.449825968706e-15 
   49       1.971820426319e-10       1.552065018782e-14       8.993539293463e-14       9.516704165795e-17       5.555591094219e-11       6.406031532308e-12      -8.499957871807e-15 
   50       2.000304242838e-10       1.655481192656e-14       6.515851969130e-14       9.910837042925e-17       5.316676344185e-11       6.155233852796e-12      -8.600212590944e-15 
   51       2.028988251966e-10       1.762923405610e-14       3.854239107976e-14       1.031304548105e-16       5.090757959782e-11       5.915844932211e-12      -8.760325961747e-15 
   52       2.057918871304e-10       1.874407430358e-14       1.007227053638e-14       1.072331974330e-16       4.877620484180e-11       5.688117212970e-12      -8.975581315947e-15 
   53       2.087131146438e-10       1.989943020534e-14      -2.026347741661e-14       1.114164855357e-16       4.676563316335e-11       5.471887219255e-12      -9.239639380630e-15 
   54       2.116647627474e-10       2.109533722030e-14      -5.247331840224e-14       1.156801905574e-16       4.486368069492e-11       5.266545872310e-12      -9.544446233045e-15 
   55       2.146481420429e-10       2.233178119686e-14      -8.656307746212e-14       1.200241774327e-16       4.305669745757e-11       5.071299738791e-12      -9.879793318502e-15 
   56       2.176648802819e-10       2.360874372269e-14      -1.225378383895e-13       1.244483361224e-16       4.134253016575e-11       4.886098780261e-12      -1.023208037643e-14 
   57       2.207157774222e-10       2.492616473617e-14      -1.604003957775e-13       1.289525572009e-16       3.972020792005e-11       4.710887081510e-12      -1.058508397422e-14 
   58       2.238003216108e-10       2.628392786131e-14      -2.001506538373e-13       1.335367228077e-16       3.818602078028e-11       4.545314159878e-12      -1.092017521625e-14 
   59       2.269165931032e-10       2.768185908033e-14      -2.417855809299e-13       1.382007066178e-16       3.673335068151e-11       4.388716615612e-12      -1.121621414272e-14 
   60       2.300611681832e-10       2.911972540621e-14      -2.852991640975e-13       1.429443738109e-16       3.535250234995e-11       4.240099782222e-12      -1.144944412847e-14 
   61       2.332305775104e-10       3.059718299254e-14      -3.306832266698e-13       1.477675983110e-16       3.403339188959e-11       4.098409899043e-12      -1.159907094517e-14 
   62       2.364262810454e-10       3.211361085541e-14      -3.779301983995e-13       1.526703190956e-16       3.277470026301e-11       3.963463530750e-12      -1.166570220938e-14 
   63       2.396506443852e-10       3.366823730324e-14      -4.270308892587e-13       1.576524965295e-16       3.157648371537e-11       3.835195153678e-12      -1.165687831158e-14 
   64       2.429054370384e-10       3.526018433237e-14      -4.779736635062e-13       1.627140967182e-16       3.043742054613e-11       3.713376091757e-12      -1.158182626799e-14 
   65       2.461917856653e-10       3.688846469531e-14      -5.307444216035e-13       1.678550920252e-16       2.935473269671e-11       3.597605384917e-12      -1.145153448949e-14 
   66       2.495101273178e-10       3.855197896906e-14      -5.853265821317e-13       1.730754615901e-16       2.832410733816e-11       3.487300657494e-12      -1.127882755052e-14 
   67       2.528601626801e-10       4.024951262328e-14      -6.417010637073e-13       1.783751918462e-16       2.733961845892e-11       3.381688986640e-12      -1.107844095796e-14 
   68       2.562413970744e-10       4.197984468074e-14      -6.998462568471e-13       1.837542847337e-16       2.639530713482e-11       3.280009849728e-12      -1.086447597427e-14 
   69       2.596549952962e-10       4.374210581903e-14      -7.597379733665e-13       1.892127831147e-16       2.549046944228e-11       3.182192130735e-12      -1.064199809121e-14 
   70       2.631022203432e-10       4.553548789633e-14      -8.213494541942e-13       1.947507514616e-16       2.462530407533e-11       3.088298519073e-12      -1.041386268208e-14 
   71       2.665838477445e-10       4.735913870311e-14      -8.846513605048e-13       2.003682693193e-16       2.379931312085e-11       2.998321927045e-12      -1.018319194590e-14 
   72       2.701001338333e-10       4.921216188438e-14      -9.496117553776e-13       2.060654320194e-16       2.301126606787e-11       2.912181782261e-12      -9.953382670038e-15 
   73       2.736507840193e-10       5.109361686200e-14      -1.016196085456e-12       2.118423513951e-16       2.225916381675e-11       2.829720320063e-12      -9.728113992838e-15 
   74       2.772349210617e-10       5.300251875690e-14      -1.084367162606e-12       2.176991564955e-16       2.154020268846e-11       2.750698875944e-12      -9.511355166209e-15 
   75       2.808510533410e-10       5.493783831140e-14      -1.154085145578e-12       2.236359943002e-16       2.085073843376e-11       2.674794177972e-12      -9.307373318242e-15 
   76       2.844977317807e-10       5.689845644237e-14      -1.225309073706e-12       2.296530207863e-16       2.018718937853e-11       2.601682414659e-12      -9.119970350014e-15 
   77       2.881757290433e-10       5.888301850480e-14      -1.298001831455e-12       2.357503706687e-16       1.954901555416e-11       2.531317332756e-12      -8.950015813243e-15 
   78       2.918862019252e-10       6.089005318777e-14      -1.372126060071e-12       2.419281834146e-16       1.893621996197e-11       2.463696351624e-12      -8.797476153868e-15 
   79       2.956300206401e-10       6.291801453423e-14      -1.447642699110e-12       2.481866129093e-16       1.834844116945e-11       2.398775409875e-12      -8.662137751718e-15 
   80       2.994077512132e-10       6.496528093290e-14      -1.524510999932e-12       2.545258279737e-16       1.778493657721e-11       2.336467057705e-12      -8.543598875891e-15 
   81       3.032196378749e-10       6.703015411023e-14      -1.602688539180e-12       2.609460128805e-16       1.724456568600e-11       2.276638549219e-12      -8.441261640134e-15 
   82       3.070655854546e-10       6.911085812234e-14      -1.682131232268e-12       2.674473678712e-16       1.672577336364e-11       2.219109934761e-12      -8.354323958229e-15 
   83       3.109451417747e-10       7.120553834696e-14      -1.762793346865e-12       2.740301096726e-16       1.622657311204e-11       2.163652153239e-12      -8.281771499373e-15 
   84       3.148577932837e-10       7.331232142801e-14      -1.844626900289e-12       2.806944689115e-16       1.574502888651e-11       2.110042381558e-12      -8.222338544529e-15 
   85       3.188039468339e-10       7.542950873540e-14      -1.927579707375e-12       2.874406807331e-16       1.528082898233e-11       2.058244804348e-12      -8.174400721094e-15 
   86       3.227840791385e-10       7.755541327768e-14      -2.011597032207e-12       2.942689935673e-16       1.483394359919e-11       2.008256453740e-12      -8.136049653828e-15 
   87       3.267984258432e-10       7.968830161702e-14      -2.096622178515e-12       3.011796725509e-16       1.440414125650e-11       1.960051685313e-12      -8.105114041814e-15 
   88       3.308469691848e-10       8.182639388559e-14      -2.182596492809e-12       3.081729999914e-16       1.399098043938e-11       1.913581232723e-12      -8.079151091174e-15 
   89       3.349294256493e-10       8.396786380192e-14      -2.269459367507e-12       3.152492758322e-16       1.359380124465e-11       1.868771262339e-12      -8.055437947773e-15 
   90       3.390452336306e-10       8.611083868725e-14      -2.357148244071e-12       3.224088181170e-16       1.321171702686e-11       1.825522427875e-12      -8.030963129931e-15 
   91       3.431935410887e-10       8.825339948190e-14      -2.445598616128e-12       3.296519634545e-16       1.284360604429e-11       1.783708925019e-12      -8.002417961131e-15 
   92       3.473731932077e-10       9.039358076160e-14      -2.534744032613e-12       3.369790674826e-16       1.248810310498e-11       1.743177546070e-12      -7.966188002731e-15 
   93       3.515830781681e-10       9.252940396137e-14      -2.624517315117e-12       3.443905157433e-16       1.214392284550e-11       1.703785824460e-12      -7.919207500611e-15 
   94       3.558232507544e-10       9.465898272743e-14      -2.714854412611e-12       3.518867571679e-16       1.181090333044e-11       1.665525084200e-12      -7.861688335233e-15 
   95       3.600939557057e-10       9.678043351419e-14      -2.805691134961e-12       3.594682765103e-16       1.148910469502e-11       1.628414235303e-12      -7.794787575577e-15 
   96       3.643952773338e-10       9.889184425443e-14      -2.896962009890e-12       3.671355849851e-16       1.117848774674e-11       1.592461929562e-12      -7.719784270914e-15 
   97       3.687271320971e-10       1.009912748315e-13      -2.988600302780e-12       3.748892208750e-16       1.087891016362e-11       1.557666151759e-12      -7.638082729968e-15 
   98       3.730892611747e-10       1.030767575515e-13      -3.080538036463e-12       3.827297501386e-16       1.059012269251e-11       1.524013810883e-12      -7.551215800075e-15 
   99       3.774812230406e-10       1.051462976156e-13      -3.172706011025e-12       3.906577670172e-16       1.031176534735e-11       1.491480331341e-12      -7.460848146342e-15 
  100       3.819023860380e-10       1.071978735918e-13      -3.265033823602e-12       3.986738946432e-16       1.004336360746e-11       1.460029244169e-12      -7.368779530809e-15 
  101       3.863519209531e-10       1.092294378878e-13      -3.357449888180e-12       4.067787856468e-16       9.784324615818e-12       1.429611778248e-12      -7.276948091606e-15 
  102       3.908287935895e-10       1.112389172226e-13      -3.449881455388e-12       4.149731227638e-16       9.533933377325e-12       1.400166451513e-12      -7.187433622116e-15 
  103       3.953317573421e-10       1.132242130990e-13      -3.542254632304e-12       4.232576194432e-16       9.291348957091e-12       1.371618662172e-12      -7.102460850136e-15 
  104       3.998596103280e-10       1.151832534370e-13      -3.634494964287e-12       4.316329970421e-16       9.055794740357e-12       1.343897717253e-12      -7.023915508924e-15 
  105       4.044120223308e-10       1.171141544012e-13      -3.726529227376e-12       4.400999115952e-16       8.827166671338e-12       1.316991418514e-12      -6.951811036959e-15 
  106       4.089888062404e-10       1.190150814160e-13      -3.818283916051e-12       4.486590182391e-16       8.605500473585e-12       1.290898122528e-12      -6.885619900723e-15 
  107       4.135896590081e-10       1.208842009783e-13      -3.909684728486e-12       4.573109940878e-16       8.390783276441e-12       1.265609747259e-12      -6.824740256965e-15 
